-38
-34
-30
-40
-36
-63
-108
-228
-291
-582
-603
-714
-783
-827
-942
-937
-979
-1093
-1111
-1174
-1100
-965
-925
-987
-823
-795
-594
-461
-389
-318
-299
-255
-298
-309
-410
-287
-34
37
203
258
245
51
-8
4
39
97
36
-141
-263
-192
-321
-344
-429
-517
-463
-518
-512
-551
-545
-626
-645
-768
-803
-865
-961
-932
-795
-836
-798
-817
-808
-761
-753
-827
-881
-929
-1055
-1044
-921
-930
-925
-915
-905
-895
-886
-877
-939
-778
-770
-582
-638
-591
-486
-240
-73
-72
160
158
278
361
357
415
465
485
480
441
491
486
517
511
505
490
499
479
370
471
556
649
656
722
782
890
881
1065
1216
1203
1390
1376
1541
1525
1509
1627
1769
1821
1756
1776
1874
1954
2046
2035
2064
2248
2419
2441
2551
2752
2901
3077
3105
3164
3132
3020
2989
2949
2954
2861
2918
2925
3004
3092
3280
3314
3476
3479
3536
3576
3568
3693
3668
3630
3528
3353
3302
3268
3235
3202
3169
3137
3031
3000
2953
2923
2893
2864
2836
2845
2816
2787
2759
2673
2646
2533
2507
2481
2456
2349
2325
2301
2408
2403
2429
2404
2471
2446
2480
2651
2812
2936
3049
2971
3093
3029
3007
3085
3062
3169
3137
3105
3073
3042
3090
3059
3028
2997
2967
2937
2907
2877
2848
2819
2790
2762
2734
2706
2678
2651
2624
2597
2571
2545
2519
2493
2468
2498
2472
2447
2422
2397
2428
2204
2181
2266
2026
2005
1984
1964
1774
1756
1697
1680
1538
1451
1495
1526
1467
1580
1722
1767
1820
1894
1940
1958
2062
2081
2207
2222
2199
2181
2159
2130
2033
1975
2019
1998
1817
1681
1503
1479
1347
1215
1202
1129
1057
1211
1056
1045
979
969
851
737
580
574
537
424
291
288
228
225
179
177
-80
-79
-78
-77
-76
-75
-74
-73
-72
-71
-70
-69
-68
-67
-66
-65
-64
-63
-62
-61
-69
-68
-212
-209
-206
-203
-200
-197
-195
-193
-191
-189
-187
-185
-183
-181
-179
-177
-175
-173
-171
-308
-302
-298
-295
-292
-289
-286
-283
-280
-277
-392
-388
-569
-563
-583
-577
-571
-605
-570
-607
-600
-659
-652
-645
-638
-631
-624
-617
-610
-665
-658
-651
-644
-637
-741
-823
-814
-805
-796
-793
-785
-777
-846
-859
-850
-841
-832
-823
-954
-944
-902
-892
-916
-906
-896
-887
-878
-869
-860
-851
-842
-962
-952
-1020
-1009
-998
-1141
-1129
-1238
-1388
-1374
-1360
-1346
-1332
-1318
-1304
-1283
-1270
-1257
-1244
-1231
-1218
-1205
-1192
-1180
-1168
-1156
-1144
-1132
-1120
-1108
-1096
-1085
-1074
-1063
-1052
-1204
-1121
-1196
-1234
-1221
-1208
-1268
-1255
-1242
-1304
-1380
-1366
-1352
-1338
-1324
-1310
-1426
-1411
-1396
-1453
-1503
-1487
-1472
-1596
-1670
-1705
-1838
-1819
-1800
-1817
-1798
-1780
-1762
-1744
-1726
-1779
-1849
-1830
-1811
-1792
-1774
-1756
-1738
-1726
-1708
-1690
-1673
-1733
-1715
-1697
-1680
-1663
-1646
-1629
-1698
-1773
-1755
-1886
-1867
-1826
-1807
-1756
-1738
-1883
-1979
-1959
-1939
-2071
-2193
-2284
-2261
-2506
-2676
-2649
-2780
-2752
-2724
-2696
-2669
-2642
-2615
-2588
-2562
-2536
-2862
-2833
-2961
-2931
-3131
-3220
-3187
-3155
-3205
-3172
-3140
-3108
-3076
-3045
-3014
-2969
-2939
-2909
-2927
-2897
-2982
-2952
-2922
-3133
-3101
-3069
-3038
-3007
-2976
-2946
-3199
-3206
-3252
-3319
-3459
-3424
-3766
-4070
-4187
-4145
-4291
-4248
-4389
-4345
-4301
-4257
-4214
-4171
-4129
-4087
-4046
-4005
-3964
-3924
-3884
-3845
-3806
-3767
-3729
-3989
-4232
-4306
-4262
-4232
-4189
-4147
-4105
-4063
-4127
-4085
-4139
-4097
-4055
-4182
-4345
-4301
-4388
-4437
-4392
-4348
-4304
-4260
-4217
-4174
-4132
-4090
-4049
-4008
-4144
-4058
-4017
-3976
-3936
-3896
-3857
-3818
-3779
-3741
-3703
-3665
-3628
-3591
-3927
-4055
-4014
-3973
-4070
-4397
-4546
-4500
-4454
-4556
-4510
-4464
-4497
-4451
-4406
-4361
-4317
-4273
-4379
-4335
-4291
-4388
-4344
-4300
-4256
-4415
-4519
-4473
-4428
-4383
-4339
-4295
-4252
-4439
-4702
-4654
-4607
-4560
-4514
-4468
-4423
-4378
-4334
-4290
-4247
-4204
-4161
-4119
-4077
-4036
-3995
-3955
-3915
-3975
-3935
-3895
-3847
-3906
-4024
-3983
-3943
-3903
-4108
-4066
-4025
-3984
-3944
-3910
-3870
-3831
-3792
-3754
-3777
-3769
-3731
-3693
-3656
-3619
-3582
-3546
-3510
-3545
-3594
-3558
-3522
-3594
-3617
-3580
-3513
-3457
-3422
-3387
-3353
-3319
-3285
-3265
-3191
-3159
-3015
-2926
-2896
-2867
-2835
-2845
-2816
-2787
-2759
-2731
-2703
-2675
-2648
-2621
-2594
-2568
-2542
-2516
-2490
-2465
-2440
-2415
-2390
-2366
-2342
-2335
-2311
-2287
-2264
-2265
-2242
-2219
-2196
-2174
-2152
-2186
-2164
-2131
-2109
-2186
-2164
-2124
-2102
-2080
-2059
-2038
-2109
-2212
-2189
-2167
-2145
-2177
-2155
-2286
-2263
-2240
-2217
-2201
-2260
-2237
-2214
-2191
-2169
-2147
-2125
-2103
-2081
-2060
-2039
-2018
-2052
-2031
-2010
-1905
-1885
-1866
-1847
-1828
-1809
-1790
-1772
-1626
-1587
-1571
-1555
-1539
-1523
-1507
-1491
-1476
-1461
-1446
-1431
-1416
-1401
-1386
-1372
-1358
-1344
-1330
-1316
-1302
-1288
-1275
-1262
-1249
-1236
-1223
-1210
-1197
-1185
-1173
-1161
-1149
-1137
-1125
-1113
-977
-967
-957
-947
-1004
-993
-983
-973
-963
-953
-943
-933
-923
-913
-903
-956
-946
-990
-980
-994
-864
-855
-846
-837
-828
-808
-918
-1006
-995
-985
-1069
-1058
-1021
-1010
-999
-989
-979
-969
-959
-949
-939
-929
-919
-909
-899
-890
-881
-872
-863
-874
-849
-840
-831
-822
-813
-804
-876
-867
-907
-897
-888
-974
-1026
-1015
-889
-831
-822
-813
-804
-823
-814
-805
-796
-723
-715
-678
-671
-664
-657
-650
-643
-636
-649
-642
-635
-628
-621
-576
-570
-676
-669
-622
-615
-608
-601
-594
-588
-582
-546
-540
-534
-528
-522
-427
-458
-453
-448
-443
-401
-438
-441
-436
-431
-426
-421
-492
-487
-653
-646
-639
-632
-641
-817
-933
-923
-913
-851
-901
-891
-882
-873
-864
-855
-846
-837
-828
-819
-810
-909
-844
-835
-826
-737
-741
-733
-725
-717
-637
-624
-720
-789
-885
-979
-969
-1131
-1404
-1389
-1375
-1524
-1644
-1627
-1671
-1611
-1678
-1661
-1701
-1683
-1892
-1933
-1913
-1893
-2011
-1990
-2102
-2224
-2201
-2312
-2374
-2409
-2518
-2559
-2484
-2662
-2751
-2948
-3079
-3206
-3514
-3644
-3788
-4029
-4233
-4303
-4398
-4573
-4644
-4742
-4828
-4779
-4812
-4958
-4908
-4858
-5138
-5376
-5619
-5745
-5687
-5921
-6187
-6360
-6638
-6839
-6977
-7231
-7373
-7681
-7915
-7924
-8201
-8270
-8187
-8105
-8105
-8274
-8191
-8453
-8740
-8652
-8565
-8723
-8810
-8938
-8848
-8927
-8978
-8907
-8817
-8798
-8750
-8690
-8737
-8687
-8612
-8525
-8477
-8408
-8352
-8268
-8185
-8103
-8021
-7954
-7936
-7908
-7930
-7883
-7754
-7748
-7670
-7626
-7621
-7578
-7483
-7428
-7430
-7367
-7365
-7279
-7278
-7166
-7094
-6983
-6958
-6888
-6851
-6779
-6752
-6711
-6636
-6526
-6373
-6218
-6116
-6070
-5811
-5591
-5535
-5508
-5430
-5278
-5282
-5215
-5144
-5137
-5006
-5000
-4949
-4835
-4583
-4415
-4392
-4249
-4235
-4076
-4035
-3753
-3596
-3301
-3286
-3072
-2782
-2456
-2109
-1972
-1950
-1751
-1608
-1424
-1425
-1215
-1092
-948
-938
-834
-590
-584
-578
-572
-274
-109
92
260
413
354
634
754
958
1014
1185
1428
1598
1833
1996
2180
2158
2423
2879
3021
3251
3652
4057
4298
4254
4438
4721
4864
4882
5096
5368
5708
6063
6486
6828
7245
7733
8228
8709
9198
9622
10013
10543
11012
11316
11412
11348
11684
11963
12356
12613
12876
13262
13825
13960
14115
14493
14347
14455
14507
14614
14701
14553
14800
14976
14826
15070
15312
15461
15479
15627
15839
15924
16065
16235
16551
16643
16886
17036
17311
17587
17787
17873
17938
18099
18236
18314
18510
18854
19013
19127
19436
19373
19468
19656
19830
19631
19701
19912
20137
19971
19867
19858
19659
19790
19875
20238
20576
20609
20927
21168
21343
21435
21659
21824
21981
22050
22194
22501
22652
22594
22769
22823
22934
23082
22991
23036
23252
23408
23493
23681
23788
23824
24018
24279
24594
24890
25053
24984
24865
24785
24761
24798
24941
25321
25635
25698
26056
26295
26486
26583
26817
26686
26962
26951
26906
27138
27470
27588
27809
27923
27851
27951
28146
28060
28209
28437
28191
28015
27853
27498
27307
27105
26973
27062
27082
26951
26921
26666
26384
26104
25798
25468
25275
25039
24894
24694
24655
24835
24937
24987
24974
24900
24735
24742
24626
24676
24741
24919
25060
25107
25185
25199
25246
25222
25382
25427
25417
25315
25306
25205
25208
25336
25581
25740
25985
26227
26462
26792
26936
27077
27013
26982
27075
27186
27292
27465
27492
27573
27751
27857
28087
28040
28184
27901
27699
27721
27503
27490
27214
26960
26741
26658
26656
26694
26753
26851
26634
26433
26425
26513
26662
26878
27109
27056
27019
26873
26921
26891
26814
26835
26486
26044
25630
25248
25082
24806
24613
24485
24351
24396
24272
24129
24206
24275
24238
24266
24470
24243
24170
23851
23410
23100
22802
22363
22412
22400
22324
22242
21914
21803
21763
21891
21533
21655
21613
21657
21504
21431
21050
20678
20402
20010
19809
19414
19268
19109
18934
18684
18349
18125
17943
17623
17404
17011
16672
16227
15752
15407
15123
14876
14847
14730
14515
14138
13938
13664
13435
13261
13214
13092
13085
13072
13004
12817
13017
12886
12688
12643
12660
12706
12765
12874
12965
12835
12755
12716
12621
12579
12661
12886
12829
12806
12794
12675
12392
12198
12002
11687
11560
11259
11105
10785
10800
10865
10803
10706
10766
10831
10708
10558
10322
10191
9929
9712
9401
9373
9361
9327
9282
9062
8756
8598
8579
8315
8229
8146
8090
8062
8282
7920
7928
8027
7935
7916
8031
8091
8126
8263
8449
8622
8535
8581
8663
8777
8786
8698
8610
8807
8758
8670
8566
8619
8640
8534
8434
8373
8289
8095
8067
8088
8184
8014
7937
7857
7748
7893
7813
7682
7582
7622
7539
7340
7266
7193
7120
7122
7050
6988
6918
6764
6833
6833
6937
6944
6837
6779
6654
6606
6665
6646
6577
6586
6520
6454
6389
6325
6261
6198
6135
6164
6223
6209
6296
6451
6614
6689
6755
6880
6895
6825
6872
6789
6721
6653
6586
6520
6461
6396
6331
6252
6175
6120
6058
5997
5869
5768
5710
5660
5603
5479
5451
5396
5279
5226
5173
5107
5041
4997
4946
4903
4853
4804
4736
4756
4708
4660
4613
4566
4479
4434
4370
4326
4263
4220
4182
4099
4078
4037
4007
3973
3933
3893
3854
3820
3822
3876
3931
3891
4011
3950
3910
3889
3887
3925
3911
3871
3993
4027
3976
4033
3979
3986
3958
3964
3990
3977
4003
3962
3988
4014
4043
4038
4000
4023
3968
3986
3916
3840
3774
3734
3752
3664
3627
3578
3497
3461
3449
3459
3424
3477
3518
3455
3390
3360
3296
3166
3037
2880
2858
2829
2800
2771
2612
2592
2495
2410
2385
2363
2279
2195
2112
2003
1916
1967
1851
1697
1606
1452
1305
1222
1141
1026
916
912
799
791
717
709
644
637
630
540
516
444
476
471
285
282
279
276
273
270
267
264
261
258
255
252
249
246
92
-89
-88
-198
-350
-346
-431
-521
-576
-570
-636
-582
-663
-656
-562
-556
-550
-544
-538
-532
-514
-508
-529
-523
-397
-447
-442
-529
-523
-517
-648
-648
-641
-634
-622
-615
-608
-601
-689
-682
-751
-743
-735
-727
-769
-750
-742
-734
-726
-718
-710
-702
-694
-637
-728
-720
-712
-704
-696
-689
-847
-803
-731
-723
-715
-707
-699
-692
-685
-740
-732
-724
-716
-708
-699
-661
-654
-647
-633
-562
-556
-550
-544
-538
-532
-526
-562
-556
-554
-548
-542
-536
-530
-524
-518
-512
-474
-469
-464
-459
-454
-449
-444
-439
-434
-429
-424
-425
-414
-426
-363
-359
-355
-351
-347
-343
-372
-368
-364
-360
-356
-352
-348
-344
-463
-458
-453
-448
-443
-438
-433
-428
-423
-418
-413
-408
-403
-525
-590
-584
-578
-540
-534
-683
-676
-669
-662
-655
-648
-641
-634
-627
-620
-613
-606
-599
-593
-587
-604
-588
-582
-576
-570
-564
-558
-552
-546
-540
-534
-528
-522
-516
-510
-504
-498
-493
-488
-483
-478
-473
-468
-463
-458
-453
-448
-443
-438
-433
-428
-423
-418
-413
-408
-403
-398
-394
-390
-386
-382
-378
-374
-370
-366
-362
-358
-354
-350
-346
-342
-338
-334
-330
-326
-322
-318
-314
-310
-306
-302
-298
-295
-292
-289
-286
-283
-280
-277
-274
-271
-268
-265
-262
-259
-256
-253
-250
-247
-244
-241
-238
-235
-232
-229
-226
-223
-220
-217
-214
-211
-266
-371
-367
-363
-359
-355
-351
-347
-377
-385
-381
-377
-373
-369
-365
-361
-357
-353
-349
-345
-335
-346
-342
-338
-334
-330
-326
-322
-318
-314
-310
-306
-302
-298
-295
-292
-289
-286
-283
-329
-382
-397
-474
-490
-485
-480
-475
-399
-395
-391
-387
-383
-379
-375
-371
-492
-487
-611
-604
-597
-683
-676
-750
-742
-861
-914
-1000
-989
-979
-969
-959
-949
-939
-929
-919
-909
-899
-890
-881
-872
-863
-854
-845
-888
-879
-950
-940
-930
-920
-910
-900
-890
-881
-872
-863
-854
-845
-836
-827
-818
-809
-800
-791
-783
-891
-1058
-1114
-1102
-1090
-1079
-1068
-1057
-1046
-1035
-1024
-1013
-1002
-991
-971
-1031
-1020
-1009
-998
-988
-978
-968
-1126
-1119
-1107
-1095
-1190
-1269
-1256
-1243
-1230
-1217
-1204
-1191
-1179
-1167
-1155
-1143
-1272
-1289
-1276
-1263
-1250
-1237
-1224
-1211
-1198
-1186
-1174
-1162
-1150
-1138
-1126
-1114
-1077
-1117
-1105
-1093
-1082
-1071
-1060
-1087
-1170
-1158
-1146
-1134
-1122
-1110
-1098
-1087
-1076
-1065
-1054
-1043
-1032
-1021
-1010
-999
-989
-979
-969
-959
-949
-939
-929
-931
-921
-911
-955
-945
-935
-925
-915
-905
-895
-886
-877
-868
-859
-850
-841
-832
-823
-814
-805
-796
-788
-780
-772
-764
-756
-836
-827
-818
-1049
-1038
-1027
-1016
-1005
-994
-984
-974
-964
-954
-944
-934
-1165
-1231
-1309
-1295
-1331
-1317
-1303
-1289
-1276
-1263
-1250
-1237
-1224
-1211
-1198
-1186
-1293
-1280
-1267
-1204
-1191
-1179
-1167
-1155
-1143
-1131
-1119
-1107
-1095
-1084
-1073
-1062
-1051
-1040
-1029
-1111
-1099
-1019
-1008
-997
-987
-977
-967
-957
-947
-937
-927
-917
-907
-897
-888
-879
-870
-861
-852
-936
-960
-950
-940
-930
-920
-910
-900
-890
-881
-872
-863
-854
-845
-836
-827
-818
-809
-800
-786
-842
-833
-824
-815
-806
-797
-789
-781
-773
-765
-757
-749
-741
-733
-725
-717
-709
-701
-643
-636
-629
-616
-703
-695
-698
-691
-738
-730
-722
-714
-706
-698
-691
-684
-677
-670
-663
-656
-649
-642
-682
-675
-722
-714
-706
-698
-691
-684
-677
-670
-663
-656
-649
-642
-635
-628
-621
-614
-607
-600
-593
-587
-581
-575
-569
-563
-557
-551
-545
-539
-533
-527
-521
-515
-605
-508
-502
-496
-491
-486
-481
-476
-471
-466
-461
-456
-451
-446
-441
-436
-431
-426
-421
-416
-473
-468
-463
-421
-362
-358
-354
-350
-346
-342
-338
-334
-330
-326
-322
-318
-314
-310
-306
-302
-613
-946
-936
-757
-749
-741
-733
-725
-717
-709
-701
-693
-686
-679
-672
-665
-658
-651
-738
-730
-962
-1059
-1147
-1135
-1123
-1111
-1099
-1087
-1076
-1065
-1054
-1043
-1032
-1021
-1010
-999
-989
-979
-969
-959
-1028
-1029
-1018
-1007
-996
-986
-976
-966
-956
-946
-936
-926
-916
-906
-896
-887
-878
-869
-860
-851
-842
-833
-824
-815
-806
-864
-855
-857
-848
-839
-830
-821
-812
-803
-794
-786
-778
-770
-762
-754
-746
-738
-730
-722
-714
-706
-698
-810
-801
-707
-699
-692
-685
-678
-671
-664
-657
-650
-643
-636
-629
-622
-615
-608
-601
-594
-588
-582
-576
-570
-564
-558
-552
-546
-540
-534
-528
-497
-492
-408
-403
-398
-394
-390
-386
-382
-378
-374
-370
-366
-362
-358
-354
-350
-346
-342
-338
-334
-413
-389
-385
-381
-377
-373
-369
-365
-361
-357
-353
-349
-345
-317
-425
-420
-415
-410
-405
-400
-395
-391
-476
-519
-513
-507
-501
-495
-490
-485
-480
-475
-838
-829
-748
-740
-732
-724
-716
-708
-700
-692
-685
-678
-671
-664
-657
-663
-594
-588
-582
-576
-570
-564
-558
-552
-546
-540
-534
-528
-522
-516
-510
-504
-498
-493
-488
-483
-478
-473
-468
-463
-458
-453
-448
-443
-438
-383
-379
-524
-518
-512
-506
-500
-494
-489
-484
-479
-582
-576
-384
-380
-376
-372
-368
-364
-360
-356
-352
-348
-344
-340
-336
-332
-426
-341
-337
-333
-329
-325
-321
-317
-313
-309
-305
-301
-297
-294
-291
-288
-340
-298
-350
-346
-342
-338
-412
-407
-623
-616
-609
-602
-595
-401
-454
-449
-444
-439
-434
-429
-424
-419
-414
-409
-404
-399
-395
-391
-387
-487
-328
-324
-320
-316
-312
-308
-304
-300
-296
-293
-290
-287
-373
-441
-408
-538
-532
-526
-520
-526
-553
-802
-793
-785
-777
-769
-924
-1158
-1146
-1306
-1565
-1549
-1533
-1517
-1754
-1736
-2090
-2322
-2298
-2526
-2500
-2845
-2899
-2869
-3215
-3469
-3434
-3399
-3558
-3716
-3678
-3815
-3956
-3980
-4041
-4000
-3959
-3919
-3879
-3803
-3900
-3860
-3796
-3678
-3825
-3811
-3927
-3887
-3848
-3809
-3770
-3732
-3694
-3657
-3620
-3589
-3543
-3497
-3756
-3718
-3925
-4040
-4196
-4214
-4171
-4129
-4087
-4046
-4011
-4030
-3887
-3848
-3957
-3917
-4088
-4230
-4187
-4276
-4232
-4189
-4011
-3868
-3725
-3721
-3683
-3506
-3558
-3446
-3411
-3355
-3392
-3358
-3363
-3418
-3383
-3349
-3488
-3517
-3481
-3446
-3411
-3428
-3393
-3431
-3396
-3432
-3659
-3763
-3775
-3883
-4059
-3981
-3940
-3900
-3860
-3821
-3782
-3744
-3706
-3668
-3816
-4001
-4004
-3963
-3973
-4228
-4185
-4137
-4095
-4117
-4164
-4122
-4001
-3899
-3804
-3875
-3836
-3820
-3891
-3757
-3719
-3681
-3644
-3607
-3570
-3534
-3498
-3462
-3432
-3515
-3365
-3181
-3081
-2813
-2733
-2705
-2524
-2180
-1823
-1736
-1533
-1517
-1243
-1176
-942
-748
-320
-316
39
291
502
851
1387
1850
1844
2139
2524
2956
3471
4038
4450
4917
5420
5701
6218
6591
6907
6918
6987
7352
7395
7392
7517
7429
7567
7746
8076
8479
8821
9154
9628
9958
10266
10657
10613
10409
10731
11018
11206
11364
11644
11595
11707
11897
12127
12351
12646
12814
13193
13499
13746
14204
14340
14666
15064
15437
15610
15843
16209
16482
16862
17079
17131
17395
17613
17995
18334
18583
18941
19256
19630
19893
20308
20587
20728
20863
20847
20841
20834
20683
20910
21195
21458
21798
22038
22111
22257
22538
22768
23023
23248
23385
23542
23536
23250
23238
23350
23647
23972
24127
24250
24220
24307
24606
24949
25170
25490
25641
25935
26137
25936
25906
26077
26298
26273
26180
26340
26322
26565
26849
27057
27411
27576
27636
27837
27798
27901
28149
28225
27958
27996
28214
28341
28435
28528
28360
28361
28496
28558
28641
28822
29141
29355
29603
29838
29779
29794
29685
29878
29854
29931
30142
30105
29873
29861
30070
30234
30148
29986
29991
29857
29746
29904
30164
29906
29758
29448
29329
29058
28750
28462
28341
28022
27864
27551
27483
27424
27588
27355
27429
27494
27736
27998
28229
28514
28733
28985
28959
29049
29139
29266
29543
29213
29251
29187
29258
29381
29589
29656
29591
29353
29193
29177
29374
29497
29116
29078
29273
29497
29561
29713
29710
29912
30035
30029
30174
30175
30174
30127
30061
29827
29925
29881
29951
29928
30129
29827
30147
30117
29815
29518
29251
29265
29323
29463
29515
29720
29992
30136
30454
30745
30949
31076
31122
30833
30579
30454
30229
30164
29876
29868
29791
29810
29764
29814
29943
30012
30138
29986
29929
29735
29642
29472
29283
29231
28864
28821
28754
28738
28468
28448
28406
28347
28452
28440
28486
28636
28562
28815
28783
28870
28647
28805
28479
28472
28470
28452
28555
28592
28738
28732
29007
29306
29586
29783
29942
30182
30351
29966
29918
30021
29988
30219
30355
30273
30318
30161
30151
30017
29923
29851
29719
29572
29398
29226
29008
28855
28570
28326
28083
27796
27530
27337
27204
27028
26825
26687
26641
26740
26693
26861
26809
26636
26404
26175
26182
26348
26355
26512
26509
26536
26515
26570
26788
26900
26877
26841
26637
26455
26378
26291
26085
25823
25443
25121
24832
24561
24265
23935
23504
23224
22841
22732
22630
22450
22371
22169
21976
21659
21541
21530
21441
21447
21534
21451
21285
21053
21019
20954
20890
20816
20606
20444
20466
20240
19932
19652
19436
19245
19162
18949
18680
18615
18511
18440
18322
18235
17922
17600
17377
17061
16760
16393
16155
15921
15681
15440
15291
15330
15364
15358
15439
15284
15219
15127
14849
14636
14562
14630
14434
14565
14251
13960
13756
13771
13848
13805
13795
13636
13499
13342
13315
13295
13246
13113
12955
12756
12628
12546
12567
12698
12809
12901
12771
12725
12945
12954
13142
13306
13403
13457
13314
13391
13256
13123
13169
13135
13005
13155
13147
13015
13124
13066
12935
12805
12824
12797
12937
12939
13090
13211
13288
13182
13156
13127
13283
13044
12864
12735
12676
12549
12509
12469
12558
12474
12478
12175
12242
12119
12098
12128
12197
12170
12188
12036
11967
11891
11879
11608
11525
11510
11220
11335
11396
11353
11333
11390
11398
11384
11325
11441
11456
11341
11111
11064
11172
11060
11044
11073
10948
10776
10657
10488
10302
10184
10082
9842
9753
9586
9329
9184
9019
8808
8719
8631
8521
8435
8308
8247
8049
7968
7819
7740
7662
7585
7509
7347
7067
6934
6864
6795
6726
6658
6591
6525
6459
6394
6263
6226
6163
6101
6039
5978
5918
5773
5696
5638
5581
5439
5384
5330
5276
5229
5176
5124
5072
5021
4970
4920
4870
4821
4772
4724
4614
4503
4457
4412
4367
4323
4279
4236
4193
4151
4109
4067
4026
3985
3945
3905
3865
3826
3787
3749
3711
3673
3636
3599
3562
3407
3372
3338
3304
3189
3157
3125
3093
3062
3031
2811
2782
2754
2726
2698
2670
2643
2616
2470
2445
2420
2395
2371
2347
2323
2299
2275
2252
2229
2206
2183
2161
2139
2117
2095
2074
2053
2032
2011
1990
1970
1950
1930
1759
1590
1574
1558
1542
1526
1510
1494
1479
1464
1449
1434
1288
1275
1262
1179
1167
1108
1045
1034
1023
1012
1001
990
980
970
960
950
940
930
920
910
900
890
881
872
863
854
845
836
827
818
809
800
791
783
775
767
759
751
743
735
727
719
711
703
695
688
681
567
561
555
503
422
417
455
450
445
440
435
430
425
420
415
410
410
360
356
434
454
449
444
439
434
429
424
419
414
409
404
399
395
391
418
413
468
463
479
474
469
464
459
454
449
465
460
455
450
445
440
435
430
425
420
415
410
405
400
395
391
387
441
436
475
470
412
407
402
397
393
426
421
416
411
406
401
396
392
388
384
380
376
372
368
364
360
356
352
348
344
340
336
332
328
324
320
316
312
308
304
300
296
293
126
89
88
87
86
85
84
83
82
81
80
79
78
77
76
75
74
101
99
67
66
65
64
63
62
61
60
59
58
57
56
55
54
53
52
51
50
49
48
47
46
-201
-145
-143
-157
-155
-153
-153
-151
-149
-147
-145
-143
-141
-139
-137
-135
-133
-131
-129
-127
-125
-123
-121
-119
-117
-115
-113
-111
-109
-107
-105
-103
-101
-99
-98
-97
-96
-95
-94
-93
-92
-91
-90
-89
-88
-87
-86
-85
-84
-83
-82
-81
-80
-79
-78
-77
-76
-75
-74
-73
-72
-71
-70
-69
-68
-67
-66
-46
-246
-243
-240
-237
-234
-231
-228
-225
-222
-219
-216
-213
-210
-207
-204
-201
-198
-196
-194
-192
-190
-188
-186
-184
-182
-180
-138
-187
-185
-183
-181
-179
-177
-175
-173
-171
-169
-167
-165
-163
-161
-159
-157
-155
-153
-151
-149
-147
-145
-143
-141
-139
-137
-135
-133
-131
-129
-127
-125
-123
-121
-119
-117
-115
-113
-111
-109
-107
-105
-103
-101
-99
-98
-97
-96
-95
-94
-93
-92
-91
-90
-89
-88
-87
-86
-85
-84
-83
-82
-81
-80
-79
-78
-77
-76
-75
-74
-73
-72
-71
-70
-69
-68
-67
-66
-65
-64
-63
-62
-61
-60
-59
-58
-57
-56
-55
-54
-53
-52
-51
-50
-49
-48
-47
-46
-45
-44
-43
-42
-41
-40
-39
-38
-37
-36
-35
-34
-33
-32
-31
-30
-29
-28
-27
-26
-25
-24
-23
-22
-21
-20
-19
-18
-17
-16
-15
-14
-13
-12
-11
-10
-9
-8
-7
-6
-5
-4
-3
-2
-1
0
0
0
0
0
0
0
0
0
0
0
0
0
0
0
0
0
0
0
0
0
0
0
0
0
0
0
0
0
0
0
0
0
0
0
0
0
0
0
0
0
0
0
0
0
0
0
0
0
0
0
0
0
0
0
0
0
0
0
0
0
0
0
0
0
0
0
0
0
0
0
0
0
0
0
0
0
0
0
0
0
0
0
0
0
0
0
0
0
0
0
0
0
0
0
0
0
0
0
0
0
0
0
0
0
0
0
0
0
0
0
0
0
0
0
0
0
0
0
0
0
0
0
0
0
0
0
0
0
0
0
0
0
0
0
0
0
0
0
0
0
0
0
0
0
0
0
0
0
0
0
0
0
0
0
0
0
0
0
0
0
0
0
0
0
0
0
0
0
0
0
0
0
0
0
0
0
0
0
0
0
0
0
0
0
0
0
0
0
0
0
0
0
0
0
0
0
0
0
0
0
0
0
0
0
0
0
0
0
0
0
0
0
0
0
0
0
0
0
0
0
0
0
0
0
0
0
0
0
0
0
0
0
0
0
0
0
0
0
0
0
0
0
0
0
0
0
0
0
0
0
0
0
0
0
0
0
0
0
0
0
0
0
0
0
0
0
0
0
0
0
0
0
0
0
0
0
0
0
0
0
0
0
0
0
0
0
0
0
0
0
0
0
0
0
0
0
0
0
0
0
0
0
0
0
0
0
0
0
0
0
0
0
0
0
0
0
0
0
0
0
0
0
0
0
0
0
0
0
0
0
0
0
0
0
0
0
0
0
0
0
0
0
0
0
0
0
0
0
0
0
0
0
0
0
0
0
0
0
0
0
0
0
0
0
0
0
0
0
0
0
0
0
0
0
0
0
0
0
0
0
0
0
0
0
0
0
0
0
0
0
0
0
0
0
0
0
0
0
0
0
0
0
0
0
0
0
0
0
0
0
0
0
0
0
0
0
0
0
0
0
0
0
0
0
0
0
0
0
0
0
0
0
0
0
0
0
0
0
0
0
0
0
0
0
0
0
0
0
0
0
0
0
0
0
0
0
0
0
0
0
0
0
0
0
0
0
0
0
0
0
0
0
0
0
0
0
0
0
0
0
0
0
0
0
0
0
0
0
0
0
0
0
0
0
0
0
0
0
0
0
0
0
0
0
0
0
0
0
0
0
0
0
0
0
0
0
0
0
0
-189
-235
-297
-356
-403
-398
-394
-390
-386
-233
-230
-188
-186
-256
-116
-114
-112
-110
-108
-106
-104
-74
-4
-3
-2
-1
0
0
0
0
0
-17
-16
-30
-139
-149
-80
-54
140
138
262
185
183
181
179
177
175
273
408
596
630
623
749
741
652
645
638
631
624
617
640
491
316
388
384
380
376
364
259
256
253
163
161
100
135
119
70
69
68
271
438
433
658
651
644
637
630
623
616
901
1158
1301
1287
1274
1261
1513
1699
1688
1584
1479
1520
1680
1817
2020
2108
2186
2336
2422
2397
2704
2970
3123
3091
3060
3029
2998
3171
3513
3477
3442
3756
4021
4368
4324
4280
4237
4194
4152
4110
4451
4754
4706
4658
4858
5069
5018
4967
5115
5338
5644
5587
5531
5723
6016
6040
6233
6463
6619
6937
7218
7444
7647
7860
8015
8023
8031
8279
8418
8614
8885
8928
9182
9426
9669
9842
10122
10378
10668
10738
10930
11054
11051
11178
11290
11269
11300
11341
11295
11289
11175
11256
11143
11350
11586
11814
11939
12203
12596
12672
12688
12900
13119
13406
13560
13812
14006
14153
14336
14482
14664
14825
14960
15031
15058
15221
15341
15187
15233
15322
15406
15529
15672
15865
16078
16244
16260
16481
16554
16743
16738
16834
16901
17121
17236
17271
17482
17629
17830
18029
18072
18165
18325
18494
18639
18624
18810
18976
19132
19343
19483
19615
19774
19963
20056
20161
20321
20423
20393
20211
20335
20514
20505
20565
20527
20683
20763
20966
20906
21058
21251
21276
21439
21460
21407
21524
21500
21452
21382
21443
21527
21264
21327
21387
21494
21717
22006
22224
22350
22454
22556
22498
22440
22451
22513
22523
22549
22561
22475
22208
21978
22086
22164
22241
22367
22527
22645
22824
23001
23120
23238
23445
23788
23796
23973
24178
24075
24084
24074
24128
24153
24414
24526
24679
24807
25021
25065
25225
25377
25561
25767
25871
26045
26183
25822
25891
26021
25998
26153
26156
26194
25876
25822
25571
25489
25487
25434
25407
25526
25453
25376
25273
24893
24779
24620
24464
24287
23958
23418
23008
22780
22554
22669
22646
22691
22880
22752
22827
22914
23124
23247
23341
23389
23381
23485
23583
23561
23613
23574
23777
23984
24179
24424
24590
24801
24924
24701
24278
24271
24270
24354
24437
24603
24767
25017
25215
25450
25377
25495
25827
26156
26330
26564
26796
26876
27017
27285
27509
27647
27869
28088
28201
28418
28593
28830
29168
29378
29585
29699
29628
29514
29581
29615
29793
29886
29976
30217
30297
30287
30419
30472
30442
30606
30219
30207
30380
30548
30740
30603
30691
30729
30816
30736
30409
30275
30056
29932
29880
29888
29983
29753
29751
29508
29344
29380
29024
28663
28452
28012
27851
27542
27617
27817
27808
27909
27874
27768
27761
27860
27656
27628
27413
27051
26899
26833
26871
26658
26751
26897
27028
27171
27234
27456
27181
27127
26953
27131
27150
27115
27067
26706
26619
26552
26641
26639
26692
26792
26538
26599
26725
26977
27145
27249
27264
27017
26781
26665
26652
26734
26757
26686
26959
27100
27330
27515
27737
27962
28080
28234
28493
28636
28769
28771
28804
28803
28928
29074
29116
29236
29062
29111
29057
29184
29144
29275
29404
29528
29739
29441
29477
29600
29722
29742
29700
29676
29548
29561
29754
29858
29964
30120
30223
30251
30353
30017
29966
29880
29894
30189
30287
30354
30512
30607
30740
30855
30969
31142
31107
31283
31602
31591
31710
31772
31737
31691
31681
31739
31759
31742
31872
32046
32157
32194
32099
32119
32230
32119
32044
32053
31893
31647
31564
31375
31198
31169
31326
31267
31180
31081
31145
31179
31047
30980
31081
31172
31135
31261
31182
31250
31266
31334
31458
31621
31810
31929
31981
32041
31971
31998
32057
31994
31819
31952
32010
31942
31802
31864
31887
31948
32038
32127
32202
32032
31989
32201
32042
32186
32328
32440
32483
32593
32663
32814
32933
32931
33114
33216
32883
32912
33060
33233
33404
33586
33532
33591
33671
33900
33902
33855
33925
34033
34194
34296
34417
34487
34522
34463
34499
34550
34613
34686
34510
34428
34519
34277
33933
34020
34143
34171
34292
34027
33832
33872
33776
33836
33828
33925
34030
34193
34275
34358
34254
34301
34492
34652
34908
34907
34557
34638
34552
34662
34663
34609
34676
34799
34450
34672
34324
34328
34466
34395
34451
34494
34296
33955
33966
33869
33529
33514
33331
33402
33231
33234
33341
33242
33393
33542
33595
33488
33345
33297
33322
33349
33567
33647
33650
33570
33584
33247
32914
32911
32857
32698
32731
32810
32890
32560
32632
32420
32095
31773
31454
31139
30827
30518
30632
30752
30756
30687
30379
30450
30426
30037
29936
29932
29928
29960
30086
30073
29771
29672
29409
29258
29225
28932
28642
28611
28503
28696
28758
28734
28465
28382
28355
28375
28420
28533
28616
28759
28471
28186
27924
27854
27789
27702
27718
27803
27767
27790
27805
27740
27580
27480
27348
27222
27058
27072
27130
27169
27195
26922
26652
26636
26765
26602
26403
26526
26604
26593
26531
26379
26257
25994
25733
25475
25220
24967
24717
24469
24224
23981
23740
23646
23553
23317
23083
22851
22622
22395
22170
21948
21728
21510
21294
21080
20868
20773
20796
20743
20535
20448
20285
20081
20110
19908
19708
19510
19482
19467
19272
19079
18888
18698
18510
18324
18140
17958
17778
17600
17423
17248
17075
17037
16981
16811
16642
16475
16310
16146
15984
15824
15665
15508
15352
15198
15045
14894
14744
14596
14449
14304
14160
14018
13877
13738
13600
13463
13328
13194
13061
12930
12800
12671
12544
12418
12293
12169
12047
11926
11806
11687
11570
11411
11296
11238
11125
11013
10902
10792
10683
10576
10470
10365
10261
10158
10056
9955
9855
9756
9658
9561
9465
9370
9276
9183
9091
9000
8909
8819
8730
8642
8555
8469
8384
8300
8216
8133
8051
7970
7890
7811
7732
7654
7577
7501
7425
7350
7276
7203
7130
7058
6987
6917
6847
6778
6710
6642
6575
6509
6443
6378
6314
6250
6187
6125
6063
6002
5941
5881
5822
5763
5705
5647
5590
5534
5478
5423
5368
5314
5260
5207
5154
5102
5050
4999
4948
4898
4848
4799
4750
4702
4654
4607
4560
4514
4468
4362
4314
4270
4227
4184
4142
4100
4058
4017
3976
3936
3896
3857
3818
3779
3741
3703
3665
3628
3591
3608
3620
3567
3531
3495
3410
3458
3571
3535
3761
3962
3922
3882
3843
3804
3765
3727
3689
3652
3615
3578
3542
3506
3470
3435
3400
3365
3331
3297
3263
3230
3197
3164
3132
3100
3068
3037
3006
2975
2945
2915
2885
2856
2827
2798
2769
2741
2713
2685
2658
2631
2604
2577
2551
2525
2499
2473
2448
2423
2398
2373
2349
2325
2301
2277
2254
2231
2208
2185
2163
2141
2119
2097
2076
2055
2034
2013
1992
1972
1952
1932
1912
1892
1873
1854
1835
1816
1797
1779
1761
1743
1725
1707
1689
1672
1655
1638
1621
1604
1587
1571
1555
1539
1523
1507
1491
1476
1461
1446
1431
1416
1401
1386
1372
1358
1344
1330
1316
1302
1288
1275
1262
1249
1236
1223
1210
1197
1185
1173
1161
1149
1137
1125
1113
1101
1089
1078
1067
1056
1045
1034
1023
1012
1001
990
980
970
960
950
940
930
920
910
900
890
881
872
863
854
845
836
827
818
809
800
791
783
775
767
759
751
743
735
727
719
711
703
695
688
681
674
667
660
653
646
639
632
625
618
611
604
597
591
585
579
573
567
561
555
549
543
537
531
525
519
513
507
501
495
490
485
480
475
470
465
460
455
450
445
440
435
430
425
420
415
410
405
400
395
391
387
383
379
375
371
367
363
359
355
351
347
343
339
335
331
327
323
319
315
311
307
303
299
296
293
290
287
284
281
278
275
272
269
266
263
260
257
254
251
248
245
242
239
236
233
230
227
224
221
218
215
212
209
206
203
200
197
195
193
191
189
187
185
183
181
179
177
175
173
171
169
167
165
163
161
159
157
155
153
151
149
147
145
143
141
139
137
135
133
131
129
127
125
123
121
119
117
115
113
111
109
107
105
103
101
99
98
97
96
95
94
93
92
91
90
89
88
-7
-22
-21
-86
-273
-611
-604
-597
-591
-891
-1151
-1139
-1127
-1115
-1103
-1091
-1080
-1069
-1058
-1047
-1181
-1169
-1157
-1145
-1133
-1121
-1109
-1097
-1086
-1075
-1064
-1053
-1042
-1031
-1020
-1009
-998
-988
-978
-968
-958
-948
-938
-928
-918
-908
-898
-889
-880
-871
-862
-853
-844
-835
-826
-817
-808
-799
-791
-783
-775
-767
-759
-751
-743
-735
-727
-719
-711
-703
-695
-688
-681
-674
-667
-660
-653
-646
-639
-632
-625
-618
-611
-604
-597
-591
-585
-579
-573
-567
-561
-555
-549
-543
-537
-531
-525
-519
-513
-507
-501
-495
-490
-485
-480
-475
-470
-465
-460
-455
-450
-445
-440
-435
-430
-425
-420
-415
-410
-405
-400
-395
-391
-387
-383
-379
-375
-371
-367
-363
-359
-355
-351
-347
-343
-339
-335
-331
-327
-323
-319
-315
-311
-307
-303
-299
-296
-293
-290
-287
-284
-281
-278
-275
-272
-269
-266
-263
-260
-257
-254
-251
-248
-245
-242
-239
-236
-233
-230
-227
-224
-221
-218
-215
-212
-209
-206
-203
-200
-197
-195
-193
-191
-189
-187
-185
-183
-181
-179
-177
-175
-173
-171
-169
-167
-165
-163
-161
-159
-157
-155
-153
-151
-149
-147
-145
-143
-141
-139
-137
-135
-133
-131
-129
-127
-125
-123
-121
-119
-117
-115
-113
-111
-109
-107
-105
-103
-101
-99
-98
-97
-96
-95
-94
-93
-92
-91
-90
-89
-88
-87
-86
-85
-84
-83
-82
-81
-80
-79
-78
-77
-76
-75
-74
-73
-72
-71
-70
-69
-68
-67
-66
-65
-64
-63
-62
-61
-60
-59
-58
-57
-56
-55
-54
-53
-52
-51
-50
-49
-48
-47
-46
-45
-44
-43
-42
-41
-40
-39
-38
-37
-36
-35
-34
-33
-32
-31
-30
-29
-28
-27
-26
-25
-24
-23
-22
-21
-20
-19
-18
-17
-16
-15
-14
-13
-12
-11
-10
-9
-8
-7
-6
-5
-4
-3
-2
-1
0
0
0
0
0
0
0
0
0
0
0
0
0
0
0
0
0
0
0
0
0
0
0
0
0
0
0
0
0
0
0
0
0
0
0
0
0
0
0
0
0
0
0
0
0
0
0
0
0
0
0
0
0
0
0
0
0
-13
-82
-23
-22
-23
-9
-203
-99
63
99
84
157
155
324
502
496
472
610
541
659
491
510
510
426
424
403
404
441
436
487
478
416
305
221
73
50
138
158
148
164
252
236
217
169
167
149
393
453
565
642
771
905
1296
1553
1569
1584
1931
2198
2481
2482
2476
2513
2470
2430
2405
2457
2501
2504
2637
2890
2919
3079
3202
3255
3405
3508
3585
3784
3924
4116
4397
4510
4691
4780
4879
4953
5281
5340
5477
5811
6063
6466
6882
7140
7323
7508
7760
8056
8353
8692
8918
9204
9404
9693
9980
10265
10382
10565
10899
11116
11341
11773
12212
12650
12749
12995
13219
13412
13429
13397
13459
13523
13580
13806
14107
14360
14640
14936
15378
15663
15637
15720
15798
16034
15938
15978
16224
16421
16682
16918
17255
17572
18019
17958
18061
18388
18575
18642
18474
18289
18189
18107
18010
17797
17901
18174
18417
18573
18495
18814
18759
18814
19038
18979
19384
19784
20091
20490
20770
21126
21261
21004
21296
21552
21748
22013
22097
22446
22565
22713
22615
22326
22132
22105
22326
22575
22492
22738
22995
23199
23393
23793
23819
24022
24168
23979
23753
23665
23522
23443
23324
23294
23304
23549
23551
23786
23961
24222
24457
24324
24593
24547
24241
23909
23736
23628
23356
23469
23874
23704
23659
23802
24021
24150
24398
24479
24556
24633
24295
24272
23937
23601
23278
23002
22896
23093
23149
23074
23155
23423
23246
23316
23435
23475
23586
23685
23457
23444
23269
23401
23344
23241
23218
23296
23260
23345
23401
23147
22897
22709
22491
22142
21995
21874
21997
21756
21678
21491
21197
20956
20727
20704
20535
20424
20373
20235
20127
20080
20044
20328
20414
20481
20455
20331
20442
20372
20258
19990
20143
20497
20640
20854
20972
21203
21249
21112
21388
21375
21536
21397
21190
20975
20746
21017
21302
21472
21749
21994
22302
22600
22457
22374
22267
22348
22501
22664
22440
22312
22193
22150
22414
22703
22794
22881
23163
23368
23646
23948
24164
24403
24576
24744
24904
24946
25022
25028
25143
25191
25464
25616
25950
26207
26428
26570
26605
26801
26860
26684
26314
26390
26522
26622
26816
27023
27147
27178
27256
27348
27362
27638
27732
27638
27697
27978
28125
28266
27996
27795
27767
27930
28038
28211
28347
28534
28782
28999
29137
29330
29561
29703
29844
29782
30078
30233
30451
30678
30754
30902
30972
31226
31546
31853
32158
32523
32852
33021
33279
33439
33474
33626
33562
33371
33512
33654
33655
33595
33204
32711
32222
31970
31693
31346
31053
30722
30538
30242
30098
30242
30421
30567
30345
30353
30504
30646
30657
30618
30509
30237
30491
30681
30530
30643
30536
30381
30194
30100
30195
30431
30476
30476
30361
30482
30567
30477
30573
30449
30279
30071
30003
30153
29880
29877
29951
29893
29980
30047
30075
30101
30349
30317
30398
30538
30368
30732
31014
31179
31532
31807
31941
31841
32113
32298
32512
32741
32468
32623
32798
32906
33088
33208
33009
33136
33282
33283
33014
32977
32994
32594
32550
32388
32341
32264
32354
32503
32718
32942
33056
32948
32926
33132
33301
33348
33263
33044
33145
33288
33436
33666
33826
33928
33837
33843
33632
33404
33257
32961
32643
32448
32037
31518
31105
30720
30341
29897
29520
29315
29133
29000
28889
28779
28600
28544
28341
28267
28396
28498
28292
28265
28233
28053
28178
27902
27677
27275
26865
26481
26203
26027
25822
25788
25541
25391
25217
25218
25112
25086
25378
25468
25570
25420
25272
25151
25265
25323
25308
25323
25547
25990
26304
26352
26494
26445
26489
26687
26850
27140
27309
27396
27497
27677
27695
27933
28200
28464
28775
28926
28997
28858
28717
28488
28346
28389
28186
28131
28009
27803
27438
27308
27125
26980
27027
27082
27247
27319
27552
27693
27820
27970
28345
28276
28307
28369
28436
28368
28348
28541
28671
28861
29136
29234
29315
29249
29059
28953
28745
28871
28977
29068
29205
29354
29459
29453
29525
29499
29231
28989
29059
29268
28842
28470
28006
27687
27490
27457
27338
27261
27211
27329
27415
27575
27522
27423
27425
27695
27848
27746
27484
27397
27289
27206
26930
26800
26730
26484
26312
26050
25843
25672
25512
25289
25108
24744
24472
24304
24119
23839
23712
23465
23186
22999
22794
22614
22484
22196
21913
21615
21402
21177
20921
20601
20446
20295
20078
19903
19919
19724
19536
19419
19224
18892
18509
18142
17882
17488
17154
16919
16697
16532
16261
16139
15962
15751
15510
15235
14915
14809
14652
14489
14425
14295
14173
14026
13831
13704
13495
13412
13301
13195
12995
12888
12779
12608
12428
12469
12443
12431
12250
12088
12024
11741
11722
11615
11432
11251
11124
11023
10861
10905
10904
10878
10716
10617
10567
10465
10275
10076
10110
10092
10044
9998
10001
10021
10152
9975
9958
9948
9891
9835
9744
9589
9540
9500
9350
9338
9310
9317
9247
9061
8849
8588
8363
8063
7757
7625
7390
7179
6962
6864
6646
6401
6124
6071
5827
5522
5467
5235
4957
4723
4266
3928
3457
3136
2756
2443
2047
1854
1688
1389
1289
1243
1230
959
589
583
357
141
-66
-189
-263
-458
-527
-737
-893
-1165
-1449
-1843
-2106
-2326
-2577
-2646
-2673
-2941
-2971
-3309
-3510
-3591
-3778
-3848
-3809
-3940
-4048
-3955
-3970
-3918
-3878
-3892
-3959
-3846
-4098
-4177
-4335
-4320
-4236
-4233
-4199
-4324
-4264
-4294
-4271
-4267
-4247
-4349
-4525
-4662
-4910
-4812
-4624
-4536
-4559
-4599
-4620
-4494
-4524
-4594
-4761
-4843
-4709
-4645
-4694
-4607
-4563
-4487
-4601
-4509
-4540
-4409
-4343
-4196
-4141
-4318
-4274
-4351
-4375
-4383
-4339
-4295
-4252
-4209
-4166
-4124
-4082
-4041
-4000
-3959
-3919
-3879
-3840
-3801
-3762
-3724
-3686
-3649
-3612
-3575
-3539
-3503
-3467
-3433
-3343
-3309
-3275
-3242
-3209
-3176
-3144
-3112
-3056
-3025
-2994
-3126
-3094
-3057
-3174
-3142
-3110
-3078
-3047
-3016
-2985
-2955
-2925
-2895
-2866
-2837
-2808
-2779
-2751
-2723
-2695
-2668
-2641
-2614
-2587
-2561
-2621
-2584
-2558
-2532
-2506
-2480
-2455
-2430
-2405
-2380
-2356
-2332
-2308
-2284
-2261
-2238
-2215
-2192
-2170
-2148
-2126
-2188
-2166
-2208
-2185
-2163
-2141
-2119
-2097
-2076
-2055
-2034
-2013
-1992
-1972
-1952
-1932
-1912
-1892
-1873
-1756
-1658
-1817
-1844
-1825
-1806
-1787
-1769
-1708
-1775
-1757
-1739
-1721
-1703
-1685
-1668
-1651
-1634
-1617
-1600
-1583
-1567
-1551
-1535
-1383
-1369
-1355
-1392
-1378
-1364
-1350
-1336
-1322
-1308
-1294
-1281
-1268
-1255
-1218
-1205
-1204
-1191
-1224
-1211
-1197
-1185
-1173
-1199
-1224
-1211
-1198
-1186
-1174
-1162
-1150
-1138
-1126
-1114
-1102
-1090
-1079
-1068
-1057
-1123
-1259
-1246
-1233
-1220
-1207
-1194
-1182
-1170
-1158
-1146
-1134
-1122
-1110
-1098
-1087
-1076
-1065
-1054
-1043
-992
-1045
-1034
-1023
-1012
-1001
-990
-980
-970
-960
-950
-940
-930
-920
-910
-900
-890
-881
-872
-863
-854
-845
-841
-823
-814
-805
-796
-788
-780
-772
-764
-756
-748
-740
-732
-672
-641
-634
-627
-620
-613
-606
-599
-593
-587
-581
-575
-516
-487
-482
-477
-472
-556
-546
-540
-534
-528
-522
-516
-510
-504
-498
-417
-412
-407
-402
-397
-393
-389
-385
-381
-377
-355
-435
-430
-425
-420
-415
-410
-405
-400
-395
-387
-383
-379
-375
-371
-367
-363
-359
-355
-351
-347
-343
-339
-335
-331
-327
-323
-271
-277
-274
-271
-268
-265
-262
-259
-256
-253
-250
-247
-244
-241
-238
-235
-232
-229
-226
-223
-220
-217
-214
-211
-208
-205
-202
-199
-197
-195
-193
-191
-189
-187
-159
-167
-165
-163
-161
-159
-157
-155
-153
-151
-149
-147
-145
-143
-141
-139
-137
-135
-133
-131
-129
-127
-125
-123
-121
-119
-117
-115
-113
-111
-109
-107
-105
-103
-101
-12
-11
32
31
99
171
169
167
165
163
161
159
157
155
153
151
149
147
145
143
141
139
137
135
133
131
191
189
187
185
179
177
175
173
171
169
167
165
163
161
159
157
155
153
151
149
138
129
127
99
98
97
96
95
94
93
92
91
90
89
88
87
86
85
84
83
82
81
80
79
78
77
76
75
74
73
72
71
70
69
68
67
66
65
64
63
62
61
60
59
58
57
56
55
54
53
49
48
51
50
49
48
47
46
45
83
83
101
99
98
97
96
95
94
93
92
91
90
89
88
87
86
85
84
83
31
-38
-37
-36
-35
-34
-33
-32
-31
-30
-29
-28
-27
-26
-25
-24
-23
-22
-21
-20
-19
-18
-130
-206
-203
-200
-197
-195
-193
-191
-189
-187
-185
-183
-181
-179
-177
-175
-173
-171
-169
-167
-165
-47
-46
-113
-111
-109
-107
-105
-103
-101
-99
-98
-97
-96
-95
-94
-93
-92
-91
-90
-89
-88
-87
-86
-85
-84
-83
-82
-81
-80
-79
-78
-77
-76
-75
-74
-73
-63
-23
-22
-21
-20
-19
-18
-17
-16
-15
-14
-13
-12
-11
-10
42
108
106
104
102
100
98
97
96
95
94
93
92
91
90
89
177
135
133
77
76
75
74
73
72
71
70
69
68
67
66
65
64
63
62
61
60
59
58
57
56
55
54
53
52
51
50
49
48
47
46
45
44
43
42
41
40
39
38
37
36
35
34
33
176
68
-78
-77
-73
-72
-71
-70
-69
-68
-67
-66
-65
-124
-106
-104
-102
-100
-98
-97
-96
-95
-94
-93
-92
-91
-90
-89
-88
-87
-86
-85
-84
-83
-82
-81
-216
-277
-274
-271
-268
-233
-230
-317
-313
-309
-305
-301
-297
-294
-291
-288
-285
-282
-279
-276
-273
-270
-277
-235
-232
-229
-226
-223
-220
-217
-214
-211
-208
-205
-202
-199
-197
-195
-193
-191
-189
-187
-185
-183
-181
-179
-177
-175
-173
-250
-247
-391
-387
-383
-379
-375
-371
-367
-363
-359
-355
-351
-347
-343
-339
-335
-384
-522
-516
-510
-504
-498
-493
-488
-483
-478
-473
-468
-463
-458
-453
-448
-443
-438
-433
-428
-420
-415
-458
-453
-448
-443
-438
-433
-428
-423
-418
-413
-408
-403
-398
-394
-390
-386
-395
-383
-379
-375
-371
-367
-363
-359
-355
-351
-347
-343
-339
-335
-331
-327
-323
-319
-315
-311
-307
-303
-299
-296
-491
-537
-531
-525
-519
-513
-507
-501
-495
-490
-485
-480
-475
-470
-465
-460
-455
-450
-445
-440
-435
-400
-459
-463
-458
-453
-448
-443
-438
-433
-428
-423
-418
-413
-408
-403
-398
-431
-426
-379
-375
-371
-367
-363
-359
-355
-351
-427
-311
-283
-280
-277
-274
-271
-268
-265
-262
-259
-256
-253
-250
-247
-244
-241
-238
-235
-260
-257
-414
-551
-545
-539
-533
-527
-521
-515
-509
-503
-497
-492
-487
-482
-477
-472
-467
-462
-457
-452
-447
-442
-660
-653
-754
-746
-738
-730
-779
-820
-811
-802
-793
-785
-836
-958
-948
-938
-928
-918
-908
-898
-890
-1115
-1103
-1091
-1080
-1069
-1058
-1047
-1036
-1025
-1014
-1003
-992
-982
-972
-1094
-1073
-1062
-1051
-1040
-1029
-1018
-1007
-996
-986
-976
-966
-956
-930
-920
-958
-948
-938
-928
-918
-908
-912
-902
-922
-912
-902
-892
-883
-874
-865
-856
-847
-838
-829
-820
-811
-802
-793
-842
-994
-984
-1106
-1094
-1190
-1178
-1374
-1360
-1346
-1332
-1318
-1304
-1290
-1277
-1264
-1251
-1238
-1225
-1212
-1199
-1191
-1169
-1157
-1145
-1133
-1121
-1146
-1201
-1188
-1176
-1164
-1152
-1140
-1128
-1073
-1121
-1109
-1164
-1226
-1292
-1348
-1379
-1365
-1351
-1297
-1242
-1229
-1250
-1237
-1242
-1197
-1187
-1255
-1242
-1255
-1242
-1472
-1518
-1543
-1527
-1529
-1543
-1527
-1461
-1504
-1488
-1473
-1458
-1443
-1396
-1382
-1437
-1422
-1361
-1347
-1229
-1223
-1247
-1098
-1035
-1064
-1053
-1075
-1085
-1061
-1103
-1091
-1080
-1010
-1023
-1012
-1001
-990
-955
-955
-863
-838
-898
-889
-856
-827
-798
-790
-806
-721
-713
-598
-580
-488
-408
-358
-448
-540
-560
-416
-281
-107
-23
-22
116
222
189
345
457
532
526
440
335
365
361
421
365
361
458
453
494
489
484
479
561
616
713
770
889
1050
1293
1280
1524
1762
1979
2155
2400
2698
3089
3477
3716
4104
4298
4254
4490
4790
5144
5511
5690
5868
6040
6280
6423
6783
7117
7296
7222
7506
7430
7901
8270
8576
8759
9106
9404
9580
9649
9822
10152
10417
10614
10939
11159
11336
11483
11781
12101
12326
12586
12897
13159
13027
13185
13496
13736
13858
13719
13995
14284
14531
14864
15173
15422
15742
16076
16278
16610
17019
17261
17088
16916
17092
16920
17110
17222
17373
17510
17784
18067
18318
18581
18971
19223
19259
19066
19352
19620
19423
19228
19595
19815
20171
20521
20628
20862
20941
21091
21292
21484
21731
21969
21913
22076
21853
21843
21949
22200
22352
22483
22264
22460
22564
22764
22536
22708
22895
22646
22542
22475
22587
22528
22529
22542
22274
22512
22732
22847
23027
23139
23281
23430
23665
23887
24113
24285
24614
24822
25101
25230
25512
25650
25787
25906
26071
26228
26408
26526
26540
26664
26793
26927
27059
27239
27361
27504
27482
27653
27912
27963
28202
28246
28357
28592
28767
29013
29200
29361
29407
29471
29309
29372
29555
29592
29656
29646
29800
29924
30073
30241
30456
30445
30377
30483
30569
30737
30914
30817
30969
31227
31413
31549
31782
31967
32119
32289
32412
32530
32722
32951
33137
33236
33402
33540
33651
33723
33773
33987
34289
34485
34698
34909
34559
34674
34326
34357
34433
34567
34650
34770
34881
34739
34820
34885
34895
34931
34979
34974
35019
35003
35221
35289
35238
35244
35374
35406
35460
35639
35674
35794
35821
35997
36203
36307
36479
36543
36565
36198
36318
36444
36752
36972
37140
37240
37290
37453
37078
37274
37411
37519
37683
37820
37825
37917
37929
38028
37647
37804
37870
37772
37708
37661
37638
37361
37316
37370
37495
37555
37573
37639
37677
37766
37970
37907
38019
38063
38202
38302
38380
38557
38715
38820
38822
38843
38916
38867
38902
38883
38715
38673
38546
38489
38364
38337
38440
38555
38579
38650
38662
38413
38406
38501
38544
38760
38850
38869
38877
38857
38899
38851
38965
38981
38946
38856
38972
39089
39078
39049
39065
39183
39244
39337
39208
39083
39056
39134
39053
38952
38891
38777
38709
38737
38779
38778
38811
38895
38928
39033
39096
39049
39094
39113
39137
39150
39230
39225
39100
39156
39193
39147
39110
39047
39173
39240
39259
39013
38982
38978
38890
38774
38783
38834
38795
38707
38627
38618
38518
38400
38015
37966
37872
37626
37256
37220
37138
36918
36911
36911
36843
36811
36882
36855
36784
36716
36802
36657
36485
36274
36101
36027
35874
35888
35892
35877
35972
36088
36155
36118
36120
36235
36302
35902
36015
36137
36132
36201
36269
36252
36291
36334
36420
36536
36510
36630
36576
36706
36699
36680
36709
36748
36720
36787
36418
36564
36605
36726
36770
36771
36973
37028
37081
37156
37129
37224
37266
37342
37355
36981
36953
36840
36471
36482
36532
36561
36692
36706
36661
36612
36589
36605
36583
36608
36644
36593
36499
36406
36125
36035
35947
35905
35784
35878
35963
36020
35785
35818
35739
35412
35320
34966
34560
34366
34117
33913
33621
33541
33470
33467
33522
33549
33529
33504
33524
33213
33395
33464
33350
33473
33563
33750
33935
34156
34130
34287
34321
34374
34501
34502
34525
34545
34541
34666
34522
34488
34368
34023
33713
33375
33192
33050
32933
32637
32444
32155
32238
32046
32138
32126
31736
31343
31063
30971
30660
30653
30639
30483
30256
30017
29716
29418
29125
28860
28880
28552
28288
27963
27569
27293
27019
26717
26422
26160
25784
25432
25177
24815
24540
24200
23957
23717
23453
23085
22788
22559
22300
21942
21650
21336
21050
20815
20606
20399
20188
20011
19807
19668
19525
19238
18977
18643
18456
18180
17907
17622
17282
17057
16760
16478
16222
15936
15682
15459
15209
14996
14662
14515
14369
14106
13845
13587
13331
13197
13064
12933
12726
12526
12281
12125
11967
11847
11533
11245
10974
10674
10457
10166
10064
9690
9388
9137
8889
8566
8295
8211
8007
7690
7517
7368
7294
7220
6894
6709
6514
6331
6014
5700
5389
5335
5281
4975
4925
4712
4664
4378
4081
4005
3731
3570
3522
3413
3235
3202
3054
3020
2940
2861
2832
2803
2774
2746
2718
2690
2663
2548
2453
2428
2400
2375
2348
2336
2312
2288
2265
2242
2219
2196
2174
2152
2130
2108
2086
2065
2044
2029
2067
2046
2025
2004
1983
1963
1883
1936
1891
1872
1853
1942
1922
1972
1994
1830
1738
1601
1492
1385
1279
1122
890
881
872
675
437
315
165
-40
-270
-369
-365
-355
-448
-565
-885
-1202
-1500
-1577
-1730
-2128
-2455
-2807
-3132
-3364
-3728
-4016
-4205
-4412
-4664
-4584
-4682
-4841
-5027
-5273
-5498
-5442
-5387
-5645
-5588
-5610
-5553
-5497
-5486
-5460
-5484
-5429
-5500
-5550
-5619
-5642
-5673
-5672
-5671
-5616
-5559
-5384
-5115
-4892
-4778
-4776
-4728
-4680
-4633
-4538
-4450
-4405
-4360
-4316
-4220
-4102
-4110
-4145
-4157
-4044
-4003
-3962
-3922
-3715
-3606
-3463
-3269
-3236
-3203
-3170
-3138
-3106
-3074
-3043
-3012
-2981
-2951
-2921
-2891
-2862
-2683
-2594
-2584
-2726
-2767
-2739
-2616
-2589
-2659
-2632
-2605
-2578
-2552
-2526
-2500
-2474
-2449
-2424
-2562
-2581
-2796
-3073
-3042
-3011
-2980
-3102
-3165
-3133
-3489
-3646
-3609
-3911
-4123
-4081
-4040
-3999
-3958
-3918
-3878
-3839
-3800
-3761
-3723
-3685
-3648
-3611
-3574
-3538
-3502
-3466
-3824
-4136
-4094
-4053
-4012
-4154
-4112
-4070
-4029
-4258
-4361
-4562
-4516
-4470
-4425
-4380
-4336
-4623
-4901
-5142
-5090
-5249
-5517
-5506
-5697
-5639
-5865
-6238
-6175
-6113
-6051
-5990
-5930
-6277
-6631
-6917
-6847
-7224
-7151
-7079
-7414
-7630
-7553
-7477
-7402
-7327
-7253
-7180
-7215
-7395
-7573
-7903
-8255
-8578
-8492
-8731
-8643
-8818
-9131
-9352
-9258
-9580
-9484
-9839
-10074
-10413
-10308
-10204
-10101
-9999
-10285
-10182
-10080
-10289
-10186
-10084
-9983
-10285
-10444
-10339
-10235
-10132
-10030
-9929
-9829
-10094
-10226
-10123
-10021
-9920
-9820
-9973
-9873
-10180
-10474
-10815
-10706
-10598
-10804
-11097
-10985
-11325
-11523
-11407
-11292
-11178
-11448
-11817
-11698
-11580
-11811
-12090
-11968
-11848
-11729
-11611
-11494
-11378
-11264
-11151
-11039
-11310
-11525
-11779
-11661
-11544
-11428
-11313
-11492
-11787
-12124
-12002
-12231
-12108
-12383
-12661
-12994
-12863
-12734
-12989
-12858
-13034
-12903
-13060
-13243
-13110
-13334
-13501
-13739
-13601
-13464
-13329
-13195
-13062
-12931
-12801
-12672
-12545
-12681
-12922
-13079
-13259
-13126
-12994
-13072
-13242
-13109
-12977
-13171
-13360
-13561
-13425
-13290
-13156
-13519
-13650
-13877
-13738
-14028
-14293
-14149
-14255
-14416
-14271
-14128
-13986
-13846
-14055
-14229
-14545
-14399
-14345
-14201
-14058
-13917
-14193
-14413
-14268
-14125
-13983
-14156
-14474
-14737
-14857
-14994
-15198
-15457
-15686
-15528
-15817
-15658
-15501
-15385
-15230
-15077
-14926
-15072
-15280
-15360
-15206
-15559
-15771
-15613
-15456
-15686
-15961
-16131
-15969
-16211
-16292
-16128
-15966
-16011
-15850
-15764
-15893
-15867
-15944
-15784
-15711
-15553
-15397
-15242
-15089
-14937
-14787
-14857
-14927
-15035
-15195
-15399
-15244
-15091
-15287
-15497
-15679
-15755
-15900
-16079
-16437
-16272
-16510
-16344
-16180
-16305
-16338
-16174
-16395
-16605
-16438
-16665
-16649
-16723
-16555
-16389
-16417
-16624
-16687
-16519
-16764
-16596
-16835
-17008
-16837
-16979
-16809
-16640
-16473
-16308
-16144
-15982
-16185
-16311
-16558
-16392
-16309
-16145
-16300
-16491
-16325
-16161
-15999
-16121
-15959
-16077
-15916
-15756
-15598
-15441
-15286
-15132
-14980
-14830
-14681
-14534
-14666
-14827
-14678
-14531
-14774
-15115
-14963
-14813
-14664
-14517
-14371
-14227
-14408
-14683
-14836
-14966
-14816
-14959
-15187
-15034
-15181
-15240
-15087
-14935
-14785
-14637
-14490
-14344
-14200
-14057
-14385
-14687
-14917
-15165
-15373
-15555
-15399
-15244
-15534
-15736
-15938
-15778
-16004
-15843
-15991
-16255
-16092
-16025
-16223
-16413
-16630
-16463
-16651
-16788
-16619
-16829
-17059
-16888
-17087
-17273
-17477
-17643
-17466
-17291
-17117
-16945
-17136
-17207
-17235
-17303
-17396
-17529
-17647
-17470
-17570
-17394
-17219
-17348
-17431
-17256
-17083
-17265
-17431
-17538
-17490
-17314
-17074
-17134
-17192
-17071
-16995
-17056
-17134
-17327
-17153
-16981
-17157
-16985
-17127
-16955
-16785
-16616
-16449
-16644
-16772
-16974
-16804
-16635
-16468
-16303
-16139
-16350
-16499
-16333
-16596
-16701
-16533
-16731
-16974
-17096
-16924
-17105
-17332
-17417
-17242
-17424
-17591
-17414
-17400
-17387
-17212
-17187
-17250
-17296
-17122
-16950
-16968
-16947
-16992
-16821
-16652
-16643
-16476
-16311
-16147
-16210
-16047
-15886
-15726
-15568
-15412
-15257
-15104
-14952
-14802
-14653
-14614
-14634
-14487
-14415
-14270
-14294
-14150
-14206
-14244
-14334
-14404
-14259
-14116
-13974
-13834
-14010
-14103
-14248
-14354
-14582
-14436
-14675
-14880
-14731
-14583
-14720
-14572
-14799
-14650
-14503
-14357
-14213
-14070
-13929
-14000
-14174
-14032
-13891
-13751
-13613
-13802
-13974
-14217
-14074
-13933
-14069
-13928
-13788
-13941
-13917
-14144
-14312
-14441
-14296
-14152
-14435
-14731
-14583
-14437
-14292
-14148
-14006
-13865
-14002
-13861
-14084
-13943
-13803
-14010
-14090
-13948
-13808
-13669
-13532
-13702
-13798
-13937
-13887
-13956
-13934
-13794
-13731
-13868
-13729
-13591
-13454
-13319
-13185
-13053
-13144
-13264
-13379
-13242
-13109
-13022
-12891
-12870
-12741
-12613
-12486
-12361
-12237
-12114
-11992
-11871
-11752
-11634
-11517
-11401
-11286
-11173
-11061
-10950
-10789
-10942
-10832
-10723
-10615
-10508
-10402
-10297
-10193
-10090
-9989
-9889
-9945
-9845
-9746
-9648
-9895
-9795
-9696
-9598
-9501
-9405
-9310
-9216
-9123
-9031
-9212
-9119
-9027
-8936
-9139
-9047
-9349
-9255
-9330
-9236
-9244
-9151
-9369
-9563
-9467
-9372
-9278
-9185
-9421
-9326
-9544
-9448
-9353
-9259
-9443
-9348
-9254
-9161
-9069
-8978
-8888
-8799
-9102
-9443
-9753
-10064
-10355
-10534
-10739
-10931
-11056
-10993
-10882
-10773
-10665
-10558
-10452
-10347
-10243
-10140
-10045
-9944
-9844
-9745
-9634
-9807
-9708
-9610
-9513
-9417
-9322
-9505
-9672
-9797
-10005
-10174
-10239
-10136
-10167
-10065
-9964
-9864
-9765
-9763
-9665
-9568
-9472
-9377
-9283
-9190
-9098
-9006
-8915
-8825
-8736
-8648
-8561
-8475
-8390
-8306
-8520
-8434
-8349
-8265
-8129
-8047
-7966
-7886
-7807
-7728
-7650
-7573
-7497
-7421
-7346
-7272
-7199
-7126
-7054
-6983
-6913
-6843
-6773
-6964
-6894
-6972
-6902
-6832
-7021
-6950
-6880
-6811
-6742
-6674
-6607
-6775
-6766
-6698
-6630
-6563
-6497
-6431
-6366
-6302
-6238
-6175
-6113
-6051
-5990
-5930
-6008
-6053
-5992
-5932
-5872
-5813
-5754
-5696
-5638
-5581
-5525
-5469
-5414
-5359
-5433
-5638
-5581
-5591
-5535
-5435
-5631
-5665
-5608
-5570
-5514
-5458
-5403
-5348
-5294
-5241
-5188
-5136
-5084
-5033
-4982
-4932
-4882
-4833
-4827
-4874
-4825
-4776
-4669
-4622
-4575
-4589
-4543
-4497
-4581
-4535
-4489
-4472
-4481
-4436
-4391
-4347
-4303
-4259
-4216
-4173
-4131
-4089
-4048
-4153
-4187
-4145
-4103
-3956
-4000
-3959
-3919
-3879
-3840
-3801
-3762
-3724
-3686
-3649
-3612
-3575
-3539
-3503
-3601
-3622
-3585
-3549
-3552
-3581
-3545
-3509
-3473
-3522
-3576
-3540
-3504
-3468
-3433
-3398
-3363
-3329
-3295
-3474
-3534
-3592
-3556
-3683
-3646
-3669
-3740
-3702
-3664
-3627
-3590
-3554
-3688
-3817
-3778
-3740
-3702
-3701
-3830
-3882
-4047
-4176
-4201
-4210
-4167
-4125
-4211
-4191
-4299
-4381
-4359
-4524
-4647
-4588
-4451
-4483
-4450
-4405
-4304
-4260
-4130
-4088
-4047
-4006
-3965
-3845
-3806
-3687
-3667
-3630
-3593
-3682
-3696
-3777
-3746
-3708
-3637
-3600
-3562
-3667
-3834
-3795
-3821
-3929
-3889
-3850
-4087
-4269
-4226
-4324
-4427
-4347
-4286
-4243
-4200
-4157
-4115
-4073
-4032
-4059
-4107
-4255
-4469
-4424
-4476
-4544
-4498
-4452
-4407
-4634
-4587
-4541
-4649
-4532
-4368
-4324
-4197
-4036
-3995
-3989
-3836
-3828
-3576
-3254
-3094
-2920
-2890
-2861
-2797
-2917
-3063
-3032
-3001
-3229
-3491
-3456
-3421
-3640
-3858
-4055
-4161
-4156
-3983
-3943
-3658
-3477
-3220
-3432
-3353
-3319
-3222
-3189
-3157
-3125
-3145
-3105
-3073
-2892
-2892
-2994
-2964
-2934
-3136
-3336
-3467
-3597
-3783
-3732
-3694
-3657
-3620
-3497
-3461
-3383
-3544
-3606
-3666
-3576
-3670
-3843
-3893
-3751
-3702
-3664
-3627
-3569
-3724
-3686
-3767
-3798
-3759
-3721
-3683
-3596
-3670
-3633
-3596
-3838
-3799
-3760
-3904
-4141
-4396
-4268
-4210
-4053
-4205
-4253
-4334
-4549
-4718
-4670
-4623
-4907
-5169
-5328
-5591
-5818
-6022
-5961
-6178
-6378
-6314
-6250
-6187
-6433
-6561
-6710
-6926
-7129
-7317
-7430
-7355
-7281
-7208
-7135
-7327
-7609
-7522
-7446
-7532
-7456
-7381
-7381
-7201
-7128
-7056
-7046
-7053
-6982
-7103
-7152
-7321
-7510
-7650
-7871
-8146
-8064
-8291
-8544
-8645
-8558
-8472
-8387
-8303
-8219
-8136
-8054
-7973
-8229
-8367
-8657
-8843
-8754
-8666
-8863
-9038
-9259
-9407
-9415
-9418
-9374
-9292
-9198
-9105
-9067
-8976
-8886
-8817
-8969
-8938
-9074
-9300
-9341
-9427
-9564
-9805
-9819
-9720
-9622
-9593
-9662
-9783
-9772
-9743
-9645
-9548
-9452
-9357
-9343
-9249
-9168
-9076
-9131
-9075
-9121
-9029
-9108
-9112
-9130
-9126
-9279
-9420
-9559
-9621
-9807
-10005
-9919
-9913
-9990
-10158
-10305
-10551
-10695
-10933
-11130
-11238
-11228
-11125
-11013
-10902
-10886
-10759
-10863
-10771
-10689
-10751
-10683
-10670
-10784
-10676
-10710
-10675
-10664
-10729
-10784
-10887
-10848
-10739
-10536
-10350
-10171
-10033
-9886
-9794
-9596
-9347
-8985
-8891
-8626
-8329
-7983
-7602
-7198
-6935
-6873
-6498
-6154
-5775
-5372
-4996
-4647
-4281
-3893
-3584
-3156
-2897
-2515
-2136
-1828
-1506
-1106
-692
-685
-678
-342
74
458
873
1260
1729
2069
2424
2811
3168
3372
3391
3462
3427
3663
3958
4010
3969
4045
4210
4277
4279
4385
4447
4511
4632
4791
5013
5236
5311
5485
5743
5891
5841
6056
5995
6226
6369
6578
6512
6781
6983
7248
7166
7361
7515
7629
7746
8021
8267
8668
8581
8892
9008
9429
9732
9954
10195
10092
9990
9890
9791
9948
10132
10445
10669
10980
11433
11718
11890
11770
12096
12429
12644
13001
13354
13647
13840
14081
14271
14612
14877
14728
14948
15191
15460
15657
16074
16233
16118
16375
16457
16744
17075
17124
17202
17491
17727
17886
18095
18044
18281
18098
18323
18016
18140
18306
18469
18545
18803
19140
19341
19668
19799
19860
20171
20421
20466
20660
20771
20881
21120
20908
21049
21209
21025
21060
21084
21050
21232
21422
21473
21496
21566
21715
21989
22166
22218
22353
22417
22192
22433
22576
22638
22770
23028
23203
23220
22987
23043
23234
23320
23234
23106
23052
23255
23476
23715
23893
23933
24000
23759
23593
23349
23266
23389
23154
22922
23018
22896
22781
23007
22960
23003
23135
23194
23283
23352
23438
23693
23472
23159
22838
22609
22382
22088
21851
21790
21946
21954
21868
21896
21842
21914
21900
21887
21859
21795
21774
21739
21769
21649
21563
21643
21428
21475
21554
21495
21390
21214
21075
20871
20930
20887
21011
21029
21069
21087
20875
20666
20723
20808
20865
20946
21004
20793
20584
20585
20586
20509
20334
20254
20174
20072
19823
19735
19711
19785
19825
19796
19597
19503
19482
19286
19297
19278
19213
19191
19117
18925
18801
18815
18829
18946
18957
18767
18880
19089
19198
19287
19439
19244
19560
19631
19682
19880
19867
19837
19748
19550
19354
19657
19960
20172
19970
19770
19979
19779
20041
20262
20581
20843
20858
20649
20442
20237
20526
20802
20920
20710
20623
20416
20502
20359
20155
20162
19960
20078
20007
19806
19957
19757
19559
19509
19313
19320
19342
19148
18956
18751
18749
18856
18751
18563
18377
18193
18010
17829
17911
17938
17758
17628
17564
17347
17413
17192
16978
16841
16686
16518
16362
16294
16265
16207
15975
15835
15617
15362
15208
15055
14845
14696
14548
14333
14186
13975
13832
13811
13726
13725
13603
13459
13442
13482
13505
13366
13394
13377
13457
13559
13724
13815
13676
13784
13781
13695
13647
13651
13653
13813
13811
13672
13535
13616
13479
13558
13422
13645
13700
13562
13426
13553
13741
13880
13994
13992
14084
14282
14259
14125
14163
14296
14152
14177
14095
13988
14061
13956
13816
13915
13962
14056
14102
14146
14065
13924
13820
13748
13814
13912
13939
13884
13745
13854
13886
13807
13769
13600
13485
13257
13124
12992
12774
12648
12521
12326
12135
12110
12111
12094
11972
11919
11798
11679
11562
11446
11275
11162
10983
10873
11003
10794
10685
10578
10420
10565
10459
10361
10257
10385
10230
10127
10025
10104
10191
10088
9987
9887
9788
9649
9632
9535
9607
9723
9801
9912
10079
9978
10102
10239
10342
10480
10612
10505
10399
10449
10344
10240
10137
10035
10057
10131
10113
10166
10144
10042
9941
9841
9742
9644
9547
9451
9356
9262
9169
9230
9347
9253
9278
9379
9620
9523
9814
9851
10014
10020
10113
10205
10326
10388
10722
10614
10820
10886
10777
10669
10562
10456
10351
10247
10336
10232
10236
10327
10542
10436
10331
10377
10510
10404
10299
10195
10092
9990
9968
10226
10123
10021
9920
9820
9721
9623
9526
9430
9335
9241
9148
9056
8965
8875
8786
8698
8610
8523
8437
8352
8268
8195
8125
8195
8112
8133
8051
7970
8050
7969
8213
8130
8048
7967
7890
7963
7883
7854
7790
7680
7603
7533
7525
7449
7355
7262
7259
7186
7114
7042
6977
6835
6779
6635
6568
6502
6436
6371
6307
6243
6250
6134
6072
6011
5950
5890
5831
5772
5714
5656
5599
5542
5486
5431
5376
5322
5215
5162
5110
5058
5007
4956
4906
4856
4807
4758
4748
4700
4775
4727
4736
4688
4641
4594
4548
4502
4456
4468
4423
4378
4334
4290
4247
4204
4161
4119
4077
4089
4033
4061
4020
3979
3939
3899
3859
3820
3781
3743
3705
3667
3630
3593
3557
3521
3485
3450
3415
3380
3359
3325
3321
3217
3129
3097
3065
3034
3003
2972
2942
2912
2882
2853
2824
2795
2767
2739
2711
2683
2656
2629
2602
2575
2549
2523
2497
2472
2232
1980
1913
1893
1874
1855
1836
1817
1798
1780
1762
1744
1726
1708
1690
1673
1656
1574
1558
1542
1420
1405
1390
1376
1362
1348
1334
1320
1306
1377
1363
1349
1216
1203
1190
1178
1166
1154
1142
918
908
689
682
636
629
630
623
616
609
602
595
589
583
577
571
565
559
553
547
541
535
529
523
517
511
505
499
494
489
484
479
474
469
464
459
454
449
444
439
434
429
424
419
414
440
363
359
355
351
347
343
339
335
331
327
323
319
315
311
307
303
299
296
293
290
287
284
281
278
275
272
269
266
263
260
257
254
251
248
245
242
239
236
233
230
124
-5
-4
-3
-2
-139
-137
-160
-158
-156
-154
-152
-150
-148
-146
-144
-142
-140
-138
-136
-134
-132
-130
-128
-180
-174
-172
-170
-168
-166
-164
-162
-160
-158
-156
-154
-152
-150
-148
-146
-144
-142
-140
-138
-136
-134
-132
-130
-128
-126
-124
-122
-120
-118
-116
-114
-112
-110
-108
-106
-104
-102
-100
-98
-97
-96
-95
-94
-93
-92
-91
-90
-89
-88
-87
-86
-85
-84
-83
-82
-81
-80
-79
-78
-77
22
-96
-95
-94
-93
-92
-91
-90
-89
-88
-87
-86
-85
-84
-83
-82
-81
-80
-79
-78
-77
-76
-75
-74
-152
-298
-295
-292
-289
-286
-283
-280
-277
-274
-271
-268
-265
-262
-259
-256
-253
-250
-247
-244
-241
-238
-235
-232
-229
-226
-223
-220
-217
-214
-211
-208
-205
-314
-310
-306
-400
-395
-391
-387
-383
-379
-375
-371
-367
-557
-527
-521
-515
-509
-503
-497
-492
-408
-501
-495
-490
-485
-480
-475
-470
-465
-460
-455
-450
-445
-440
-435
-430
-425
-420
-415
-410
-412
-407
-524
-518
-512
-506
-500
-494
-489
-484
-479
-474
-469
-464
-459
-454
-449
-444
-439
-434
-429
-424
-419
-638
-832
-919
-909
-899
-890
-881
-872
-863
-854
-845
-836
-827
-818
-809
-800
-791
-783
-775
-767
-759
-751
-664
-657
-752
-744
-736
-728
-720
-712
-704
-696
-689
-682
-675
-668
-661
-591
-585
-579
-558
-552
-546
-540
-534
-528
-522
-516
-510
-504
-498
-493
-488
-483
-478
-473
-468
-463
-458
-453
-448
-340
-371
-367
-363
-359
-355
-351
-347
-343
-339
-335
-331
-327
-323
-319
-315
-311
-307
-140
-132
-130
-128
-126
-124
-122
-120
-118
-116
-114
-112
-110
-108
-106
-104
-102
-100
-98
-97
-44
-91
-90
-89
-88
-87
-86
-85
-84
-83
-82
-81
-80
-79
-78
-77
-76
-75
-74
-73
-72
-71
-70
-16
-15
-14
-74
-73
-72
-71
-70
-69
-42
-86
-85
-84
-83
-82
-81
-80
-79
-78
-77
-76
-75
-74
-73
-72
-71
-132
-240
-237
-234
-231
-228
-225
-222
-276
-273
-270
-267
-264
-261
-258
-332
-328
-324
-320
-316
-312
-308
-304
-300
-380
-376
-372
-480
-475
-470
-465
-460
-455
-450
-445
-440
-435
-430
-425
-420
-415
-410
-405
-400
-395
-391
-387
-383
-379
-375
-378
-444
-439
-434
-429
-424
-419
-414
-409
-404
-399
-395
-391
-387
-383
-379
-375
-371
-367
-363
-359
-355
-351
-347
-343
-339
-335
-489
-484
-479
-474
-508
-502
-496
-491
-486
-481
-476
-471
-466
-461
-456
-451
-446
-441
-436
-431
-426
-385
-443
-438
-433
-428
-423
-418
-413
-408
-403
-398
-394
-390
-386
-382
-378
-374
-370
-366
-362
-358
-354
-350
-346
-342
-341
-343
-339
-335
-331
-327
-323
-319
-315
-311
-307
-303
-300
-296
-481
-476
-471
-466
-461
-456
-584
-578
-808
-799
-791
-783
-775
-767
-759
-751
-743
-735
-727
-719
-711
-698
-691
-684
-677
-884
-844
-835
-826
-817
-808
-799
-791
-783
-775
-767
-759
-751
-743
-735
-727
-719
-711
-703
-695
-688
-681
-674
-667
-660
-653
-646
-639
-632
-625
-618
-611
-604
-597
-591
-585
-579
-573
-567
-506
-516
-510
-504
-498
-493
-488
-483
-478
-473
-468
-463
-458
-453
-448
-443
-438
-433
-428
-423
-418
-413
-408
-403
-398
-394
-390
-386
-382
-378
-374
-370
-366
-362
-358
-354
-350
-346
-342
-338
-267
-264
-431
-426
-589
-583
-577
-777
-855
-846
-837
-828
-914
-859
-850
-966
-1093
-1286
-1415
-1400
-1530
-1583
-1816
-1927
-2069
-2149
-2313
-2289
-2266
-2386
-2506
-2598
-2714
-2768
-2871
-2842
-2970
-3132
-3197
-3275
-3242
-3369
-3460
-3568
-3681
-3792
-3754
-3716
-3678
-3746
-3900
-4037
-3996
-4143
-4219
-4341
-4484
-4439
-4470
-4579
-4697
-4767
-4750
-4828
-4923
-4873
-4824
-4940
-5026
-4978
-4896
-4846
-4852
-4870
-4908
-4876
-4938
-4858
-4853
-4820
-4844
-4844
-4797
-4828
-4839
-4822
-4773
-4725
-4677
-4630
-4600
-4602
-4555
-4452
-4430
-4359
-4375
-4347
-4349
-4274
-4231
-4188
-4231
-4252
-4253
-4341
-4347
-4366
-4390
-4323
-4274
-4294
-4309
-4265
-4242
-4301
-4344
-4300
-4398
-4432
-4556
-4769
-4810
-4818
-4906
-4878
-4829
-4923
-4939
-4889
-4954
-5019
-4968
-4918
-4868
-4909
-4992
-5043
-5147
-5282
-5357
-5318
-5263
-5210
-5273
-5220
-5167
-5115
-5063
-5062
-5070
-5144
-5143
-5242
-5301
-5373
-5347
-5308
-5334
-5426
-5371
-5355
-5456
-5399
-5391
-5452
-5512
-5605
-5615
-5650
-5728
-5713
-5747
-5723
-5712
-5785
-5952
-5993
-6090
-6047
-5986
-6027
-6086
-6025
-6037
-5968
-6019
-6069
-6076
-6015
-6094
-6211
-6259
-6287
-6336
-6322
-6407
-6505
-6597
-6554
-6488
-6404
-6331
-6232
-6178
-6117
-6055
-5994
-5916
-5870
-5904
-5844
-5967
-5889
-5999
-5977
-5944
-6068
-6054
-6050
-6064
-6078
-6119
-6043
-5918
-5699
-5686
-5548
-5280
-5257
-5204
-4945
-4758
-4626
-4408
-4191
-3938
-3967
-4104
-4375
-4574
-4841
-5083
-5328
-5608
-5916
-5856
-6026
-5965
-6180
-6444
-6603
-6911
-7111
-7039
-6968
-7266
-7193
-7431
-7763
-7949
-8057
-8244
-8467
-8799
-8945
-8855
-9135
-9359
-9500
-9681
-9584
-9797
-10024
-10272
-10539
-10917
-10807
-11157
-11045
-11332
-11616
-11499
-11383
-11585
-11804
-12160
-12465
-12340
-12613
-12927
-13112
-13405
-13695
-13945
-14158
-14263
-14120
-14118
-14270
-14127
-14287
-14407
-14279
-14410
-14328
-14217
-14045
-13904
-13899
-13916
-14029
-14045
-14100
-14211
-14416
-14625
-14782
-14944
-15051
-15120
-15268
-15372
-15218
-15065
-15130
-15145
-15238
-15213
-15286
-15477
-15620
-15822
-15892
-16042
-16254
-16382
-16523
-16587
-16780
-16951
-17212
-17374
-17200
-17341
-17632
-17833
-17999
-18141
-18227
-18398
-18535
-18660
-18736
-18903
-19028
-19267
-19480
-19591
-19768
-20016
-20173
-20417
-20590
-20862
-21112
-20900
-20690
-20856
-21062
-21230
-21351
-21410
-21457
-21242
-21262
-21311
-21436
-21563
-21730
-21846
-21875
-22053
-22273
-22327
-22409
-22184
-22216
-22405
-22582
-22589
-22362
-22138
-22178
-22208
-22296
-22382
-22463
-22668
-22835
-23008
-22754
-22832
-22933
-23028
-23145
-23330
-23508
-23577
-23684
-23829
-23649
-23625
-23388
-23385
-23480
-23521
-23572
-23681
-23635
-23578
-23384
-23421
-23186
-23249
-23312
-23395
-23382
-23487
-23548
-23661
-23893
-23813
-23981
-24242
-24406
-24161
-24369
-24333
-24568
-24630
-24667
-24556
-24570
-24591
-24432
-24513
-24587
-24566
-24592
-24809
-25086
-25355
-25591
-25801
-25987
-26250
-26404
-26444
-26593
-26724
-26456
-26635
-26692
-26683
-26892
-26975
-27077
-27293
-27415
-27420
-27622
-27684
-27783
-27924
-27964
-28076
-28128
-28215
-28334
-28381
-28402
-28370
-28320
-28370
-28211
-28196
-28271
-27988
-28090
-28226
-28461
-28512
-28672
-28726
-28764
-28892
-28872
-28839
-28596
-28467
-28311
-28072
-27893
-27688
-27514
-27311
-27191
-26967
-26723
-26565
-26316
-26254
-25991
-25859
-25796
-25706
-25698
-25433
-25315
-25208
-25131
-24882
-24797
-24674
-24567
-24433
-24438
-24281
-24106
-23958
-23735
-23543
-23367
-23145
-22925
-22782
-22636
-22426
-22218
-22012
-21808
-21629
-21430
-21288
-21114
-20942
-20744
-20536
-20346
-20154
-19964
-19805
-19657
-19539
-19346
-19164
-19004
-18845
-18725
-18620
-18493
-18348
-18186
-18002
-17878
-17717
-17580
-17410
-17269
-17191
-17081
-16919
-16690
-16406
-16182
-15965
-15731
-15518
-15184
-14885
-14589
-14317
-14020
-13675
-13385
-13287
-12935
-12630
-12379
-12255
-11979
-11738
-11620
-11503
-11387
-11273
-11160
-10923
-10638
-10430
-10064
-9833
-9581
-9485
-9210
-8942
-8613
-8350
-8136
-7850
-7596
-7394
-7189
-7117
-7045
-6974
-6763
-6548
-6307
-6113
-6051
-5990
-5930
-5870
-5811
-5752
-5694
-5637
-5580
-5372
-5172
-5037
-4850
-4648
-4450
-4405
-4156
-3999
-3706
-3579
-3543
-3507
-3471
-3277
-2925
-2863
-2834
-2669
-2506
-2344
-2197
-2230
-2207
-2184
-2130
-2123
-1944
-1924
-1710
-1569
-1608
-1576
-1560
-1433
-1420
-1385
-1218
-977
-967
-1033
-1059
-1048
-922
-770
-819
-846
-837
-766
-812
-629
-442
-296
-161
14
-63
-100
-50
-58
15
-34
79
-20
-57
-56
-23
-41
-4
10
-46
-45
-55
-65
-102
-190
-178
-161
-28
246
263
260
272
412
407
555
549
531
525
519
605
653
827
1079
1042
1031
1163
1107
1030
1098
1087
1076
1065
1166
1272
1259
1246
1233
1220
1207
1194
1177
1231
1179
1167
1155
1143
1131
1119
1107
1095
1084
1073
1062
1051
1040
1029
1018
1007
996
986
1009
1067
1056
1045
1034
1023
1012
1001
990
980
970
960
950
940
999
1019
1008
997
987
977
967
957
947
937
927
917
907
897
888
879
870
930
977
967
882
873
864
855
846
837
828
819
810
801
792
784
776
768
824
911
901
891
882
873
864
855
846
837
828
819
810
801
792
784
776
768
724
753
745
737
729
721
713
705
697
693
711
703
695
688
681
674
667
660
653
646
631
639
632
625
618
611
604
597
591
585
579
573
567
561
555
549
543
537
531
602
527
521
515
509
503
497
492
487
482
477
472
467
462
457
452
447
442
437
432
427
336
332
328
324
208
205
202
199
197
195
193
191
189
187
185
183
181
179
130
71
70
69
68
67
66
65
64
63
62
61
60
59
58
57
56
55
54
-37
-22
-21
-20
-19
-18
-17
-16
-15
-14
-13
-12
-11
-10
-9
-8
-7
-6
-86
-99
-193
-284
-333
-426
-421
-514
-644
-739
-849
-840
-831
-822
-1055
-1117
-1105
-1093
-1082
-1071
-1060
-1049
-1038
-1008
-997
-1167
-1155
-1143
-1131
-1119
-1107
-1095
-1084
-1073
-1062
-1051
-1040
-1029
-1018
-1007
-996
-986
-1034
-1066
-1055
-1044
-1033
-1022
-1011
-1000
-989
-979
-969
-959
-949
-939
-929
-1032
-1133
-1140
-1128
-1116
-1104
-1092
-1081
-1070
-1059
-1048
-1037
-1026
-1015
-1004
-993
-983
-973
-963
-953
-943
-933
-923
-913
-903
-893
-884
-875
-866
-857
-848
-839
-830
-821
-812
-803
-794
-786
-778
-770
-762
-754
-869
-952
-942
-932
-922
-912
-902
-892
-883
-874
-865
-856
-847
-838
-829
-820
-811
-802
-793
-785
-777
-769
-761
-892
-883
-874
-865
-973
-963
-953
-943
-933
-923
-896
-887
-895
-886
-877
-868
-859
-850
-841
-832
-791
-827
-818
-809
-800
-791
-783
-775
-767
-759
-751
-743
-735
-727
-719
-711
-703
-695
-688
-681
-674
-667
-660
-797
-772
-764
-756
-748
-740
-732
-724
-716
-708
-700
-692
-685
-678
-671
-664
-657
-650
-643
-636
-629
-635
-621
-614
-607
-734
-726
-718
-710
-702
-694
-687
-680
-673
-666
-659
-652
-645
-638
-631
-624
-617
-610
-603
-596
-748
-740
-732
-827
-818
-809
-800
-791
-783
-775
-767
-759
-751
-743
-735
-702
-556
-550
-544
-538
-532
-526
-520
-514
-508
-502
-411
-406
-471
-466
-624
-617
-582
-576
-570
-564
-558
-552
-546
-540
-534
-528
-522
-516
-510
-504
-498
-543
-520
-514
-508
-502
-496
-491
-486
-481
-476
-471
-466
-461
-456
-451
-446
-441
-436
-387
-436
-540
-671
-664
-657
-650
-643
-636
-629
-622
-615
-608
-601
-594
-588
-582
-576
-570
-547
-541
-510
-504
-498
-493
-488
-483
-478
-473
-468
-463
-458
-453
-448
-443
-438
-433
-521
-741
-953
-1022
-989
-979
-969
-959
-949
-939
-929
-919
-909
-899
-890
-881
-872
-972
-962
-952
-942
-932
-922
-912
-902
-892
-883
-874
-865
-856
-847
-838
-829
-820
-811
-802
-793
-785
-777
-769
-723
-715
-796
-788
-780
-772
-764
-756
-748
-740
-732
-724
-716
-708
-700
-692
-685
-678
-671
-664
-657
-768
-766
-758
-750
-742
-734
-726
-718
-710
-702
-694
-692
-685
-678
-738
-779
-754
-746
-738
-730
-722
-714
-706
-698
-691
-684
-677
-670
-663
-656
-699
-778
-770
-762
-799
-791
-783
-775
-847
-838
-829
-820
-811
-802
-793
-785
-777
-769
-761
-753
-745
-737
-729
-828
-861
-852
-843
-834
-825
-816
-807
-798
-790
-782
-774
-766
-758
-750
-702
-694
-881
-872
-863
-854
-845
-836
-827
-818
-809
-800
-791
-783
-775
-767
-820
-675
-668
-661
-654
-647
-640
-633
-626
-619
-612
-605
-519
-513
-678
-671
-664
-657
-650
-643
-1002
-1079
-1068
-1057
-1046
-1035
-1024
-1013
-1039
-1028
-1017
-1006
-995
-985
-999
-989
-979
-969
-959
-949
-939
-929
-919
-1049
-1038
-1100
-1088
-1077
-1066
-1055
-1044
-1033
-1022
-1011
-1000
-989
-979
-969
-959
-949
-939
-1042
-1031
-1120
-1108
-1096
-1085
-1074
-1063
-1052
-1041
-1030
-1019
-1008
-997
-987
-977
-967
-957
-947
-937
-927
-917
-907
-897
-888
-879
-870
-861
-852
-1005
-994
-984
-974
-1194
-1182
-1170
-1158
-1146
-1134
-1171
-1147
-1135
-1123
-1111
-1099
-1087
-1076
-1065
-1054
-1043
-1032
-1021
-1010
-999
-989
-979
-969
-959
-949
-939
-929
-919
-909
-899
-890
-881
-872
-863
-854
-845
-836
-827
-818
-809
-800
-791
-783
-775
-767
-759
-751
-743
-735
-727
-719
-711
-703
-695
-688
-681
-674
-667
-660
-653
-646
-639
-632
-625
-618
-726
-718
-611
-604
-702
-694
-687
-821
-812
-803
-794
-786
-778
-770
-762
-754
-746
-738
-730
-852
-921
-911
-901
-891
-882
-873
-864
-855
-846
-837
-828
-819
-810
-801
-792
-784
-776
-768
-760
-752
-744
-736
-720
-728
-720
-712
-704
-696
-689
-682
-675
-668
-661
-654
-647
-640
-633
-626
-619
-612
-543
-529
-523
-517
-511
-597
-591
-662
-655
-648
-641
-634
-627
-620
-613
-606
-599
-593
-587
-581
-575
-569
-604
-689
-682
-675
-668
-661
-654
-647
-640
-633
-626
-619
-612
-605
-598
-592
-586
-580
-574
-682
-606
-599
-593
-587
-581
-575
-569
-563
-557
-551
-596
-590
-671
-652
-813
-804
-795
-787
-779
-771
-763
-923
-913
-846
-837
-828
-819
-810
-801
-792
-784
-742
-770
-762
-754
-746
-738
-730
-722
-714
-706
-738
-838
-829
-820
-811
-802
-793
-785
-777
-769
-761
-753
-745
-737
-729
-721
-713
-705
-697
-690
-683
-734
-680
-673
-666
-895
-886
-877
-868
-859
-850
-841
-832
-823
-814
-805
-796
-788
-780
-772
-764
-756
-805
-796
-766
-758
-747
-897
-888
-879
-870
-861
-852
-843
-834
-825
-816
-807
-798
-790
-782
-774
-811
-802
-793
-785
-857
-848
-839
-830
-821
-812
-803
-794
-786
-778
-770
-762
-515
-480
-475
-470
-465
-460
-455
-450
-445
-440
-435
-430
-425
-420
-415
-410
-296
-292
-289
-286
-283
-280
-277
-274
-271
-268
-265
-262
-259
-256
-253
-250
-247
-244
-241
-238
-235
-232
-229
-226
-223
-220
-217
-214
-211
-208
-205
-202
-199
-215
-244
-241
-238
-235
-232
-229
-226
-202
-304
-300
-296
-293
-290
-287
-284
-315
-231
-238
-235
-232
-229
-226
-223
-220
-53
-175
-173
-171
-169
-167
-165
-163
-253
-245
-210
-207
-204
-201
-198
-196
-194
-347
-407
-402
-397
-393
-381
-394
-452
-536
-530
-569
-631
-607
-600
-593
-587
-581
-575
-569
-563
-557
-619
-612
-669
-760
-821
-1013
-1098
-1360
-1346
-1332
-1318
-1464
-1637
-1620
-1603
-1586
-1570
-1554
-1538
-1522
-1506
-1490
-1475
-1652
-1803
-1784
-1766
-1827
-2024
-2142
-2376
-2526
-2696
-2767
-2938
-2908
-3060
-3029
-3244
-3412
-3652
-3897
-3857
-3818
-3779
-3741
-3703
-3665
-3901
-4023
-4275
-4232
-4189
-4147
-4105
-4063
-4022
-3981
-3941
-4213
-4357
-4572
-4526
-4807
-5038
-4987
-5318
-5264
-5211
-5366
-5552
-5851
-5792
-6133
-6359
-6295
-6231
-6168
-6106
-6355
-6483
-6769
-7023
-7215
-7142
-7070
-7238
-7516
-7440
-7695
-7943
-8195
-8112
-8261
-8495
-8409
-8606
-8855
-9092
-9320
-9595
-9828
-9977
-9877
-9778
-10024
-9923
-10063
-10170
-10436
-10733
-10817
-11019
-10908
-11139
-11027
-11106
-11194
-11081
-10970
-11017
-10906
-10796
-10862
-10944
-11116
-11187
-11237
-11314
-11491
-11599
-11731
-11813
-11890
-11999
-12303
-12179
-12057
-11936
-12200
-12421
-12579
-12744
-12616
-12489
-12684
-12557
-12431
-12306
-12182
-12284
-12462
-12556
-12698
-12865
-13057
-13151
-13334
-13549
-13800
-13940
-14260
-14616
-14823
-15061
-15211
-15370
-15599
-15810
-15651
-15924
-16253
-16458
-16753
-16996
-16825
-16956
-17216
-17443
-17268
-17095
-17343
-17549
-17855
-18056
-17875
-17696
-17990
-18172
-18508
-18801
-19043
-19331
-19562
-19834
-19963
-20033
-19832
-19925
-19993
-20094
-20294
-20434
-20573
-20758
-20550
-20344
-20414
-20545
-20657
-20806
-20837
-21025
-21265
-21453
-21621
-21743
-21837
-22117
-22273
-22050
-22248
-22426
-22673
-22842
-23008
-23133
-23296
-23518
-23282
-23048
-23199
-23310
-23520
-23605
-23689
-23801
-23979
-23738
-23837
-23880
-24107
-24325
-24444
-24557
-24747
-24829
-24987
-25167
-25335
-25425
-25471
-25526
-25561
-25305
-25499
-25689
-25891
-26084
-26134
-25872
-26092
-26252
-26401
-26395
-26130
-26151
-26262
-26444
-26595
-26724
-26750
-26619
-26352
-26088
-26066
-26096
-26145
-26289
-26359
-26437
-26596
-26635
-26684
-26818
-26922
-26956
-26934
-26948
-27051
-26905
-27018
-26747
-26862
-26836
-26837
-26926
-27145
-27300
-27532
-27775
-27915
-27635
-27712
-27766
-27851
-28008
-28115
-28245
-28453
-28630
-28750
-28723
-28435
-28150
-27868
-27906
-27956
-28077
-28163
-28308
-28459
-28532
-28557
-28677
-28724
-28888
-28598
-28792
-28923
-29031
-28965
-29052
-29072
-29048
-29130
-29239
-28946
-28802
-28513
-28227
-28264
-27981
-27987
-27706
-27559
-27283
-27258
-26985
-27053
-26782
-26778
-26820
-26838
-26984
-26713
-26828
-26981
-27121
-27092
-27078
-27179
-26906
-26967
-26994
-27026
-27081
-27024
-27079
-27022
-27111
-27155
-27170
-27185
-27218
-27332
-27460
-27185
-27213
-27174
-27293
-27019
-26748
-26753
-26772
-26921
-26887
-26879
-26782
-26757
-26776
-26784
-26802
-26945
-27010
-27098
-26826
-26850
-26581
-26697
-26907
-26637
-26370
-26106
-26186
-26200
-26311
-26458
-26700
-26766
-26930
-27043
-27290
-27448
-27173
-26901
-26631
-26364
-26461
-26514
-26503
-26237
-25974
-26010
-25793
-25740
-25760
-25502
-25246
-24993
-24742
-24767
-24519
-24593
-24707
-24459
-24553
-24550
-24672
-24852
-24986
-25109
-24857
-24608
-24599
-24805
-24756
-24915
-24983
-25095
-25064
-25052
-24801
-24750
-24669
-24422
-24177
-23934
-23694
-23774
-23844
-23845
-23865
-23924
-23901
-23654
-23611
-23619
-23382
-23383
-23391
-23449
-23340
-23444
-23479
-23454
-23219
-22986
-22755
-22539
-22528
-22513
-22512
-22554
-22328
-22301
-22318
-22094
-22070
-21849
-21630
-21413
-21198
-21206
-20993
-21023
-20995
-20909
-20699
-20619
-20412
-20207
-20036
-19977
-19815
-19716
-19569
-19501
-19305
-19258
-19065
-18940
-18867
-18677
-18490
-18304
-18267
-18084
-18025
-17844
-17665
-17488
-17516
-17548
-17609
-17432
-17465
-17290
-17267
-17130
-16958
-16788
-16794
-16875
-16706
-16538
-16372
-16208
-16045
-15884
-15725
-15567
-15411
-15311
-15313
-15159
-15007
-14856
-14707
-14559
-14413
-14268
-14125
-13983
-13843
-13704
-13566
-13430
-13304
-13417
-13282
-13149
-13017
-12965
-12958
-12828
-12775
-12647
-12520
-12394
-12384
-12260
-12137
-12015
-11894
-11774
-11746
-11628
-11511
-11395
-11280
-11275
-11162
-11230
-11117
-11005
-10894
-10784
-10676
-10663
-10556
-10669
-10562
-10456
-10367
-10371
-10364
-10368
-10276
-10238
-10135
-10033
-9932
-9832
-9745
-9712
-9614
-9625
-9540
-9444
-9349
-9248
-9220
-9127
-8908
-8818
-8729
-8641
-8554
-8468
-8383
-8299
-8227
-8129
-8047
-7966
-7832
-7680
-7491
-7385
-7234
-7161
-7030
-6996
-6925
-6855
-6747
-6606
-6539
-6298
-6059
-5823
-5675
-5477
-5267
-5078
-5027
-5031
-5035
-4918
-4868
-4770
-4734
-4762
-4730
-4511
-4465
-4420
-4266
-4118
-3964
-3849
-3703
-3665
-3539
-3398
-3299
-3275
-3265
-3123
-2992
-2795
-2657
-2576
-2605
-2518
-2321
-2363
-2318
-2158
-2077
-1931
-1977
-2023
-2049
-2090
-2046
-2025
-1981
-2008
-2053
-2018
-1997
-1964
-1944
-1977
-1957
-1937
-1970
-1950
-1930
-1910
-1935
-1915
-1895
-1876
-1843
-1867
-1962
-2066
-2102
-2194
-2172
-2150
-2176
-2154
-2180
-2158
-2136
-2114
-2092
-2071
-2050
-2029
-2008
-1987
-1967
-1947
-1994
-1974
-1998
-1978
-1920
-1915
-1910
-2004
-2077
-2056
-2035
-2041
-2020
-1999
-1978
-1958
-1938
-1984
-2055
-2034
-2013
-1992
-1972
-1952
-1932
-2010
-1947
-2021
-2216
-2193
-2171
-2149
-2127
-2105
-2083
-2138
-2116
-2186
-2452
-2427
-2402
-2377
-2353
-2329
-2305
-2552
-2526
-2500
-2474
-2449
-2424
-2399
-2374
-2350
-2326
-2302
-2278
-2255
-2232
-2209
-2186
-2164
-2142
-2120
-2098
-2076
-2055
-2034
-2013
-1992
-1972
-1952
-1932
-1912
-2076
-2034
-2013
-1992
-1972
-1952
-1932
-1912
-1892
-1873
-1816
-1797
-1779
-1922
-1902
-2047
-2176
-2414
-2587
-2561
-2805
-2930
-3034
-3030
-2999
-3027
-3186
-3291
-3258
-3346
-3312
-3394
-3360
-3448
-3413
-3378
-3344
-3315
-3281
-3402
-3574
-3663
-3953
-4116
-4282
-4239
-4196
-4153
-4371
-4327
-4283
-4308
-4264
-4327
-4381
-4337
-4395
-4478
-4433
-4388
-4419
-4553
-4661
-4781
-4828
-5095
-5241
-5385
-5298
-5244
-5191
-5139
-5122
-5070
-5019
-5263
-5349
-5295
-5241
-5420
-5621
-5669
-5670
-5603
-5650
-5763
-5813
-5754
-5804
-5913
-5867
-5808
-5749
-5794
-5736
-5708
-5736
-5856
-5797
-5844
-5888
-6130
-6068
-6007
-6106
-6104
-6106
-6044
-5983
-6177
-6298
-6234
-6171
-6109
-6172
-6387
-6577
-6511
-6445
-6380
-6474
-6701
-6865
-7071
-7238
-7165
-7093
-7022
-7189
-7455
-7511
-7722
-7644
-7567
-7491
-7416
-7341
-7565
-7751
-7863
-7784
-7706
-7672
-7579
-7503
-7427
-7352
-7278
-7425
-7512
-7436
-7650
-7752
-7799
-7791
-7791
-7713
-7635
-7739
-7661
-7834
-7858
-8029
-8198
-8115
-8033
-7952
-7954
-8042
-8114
-8032
-7951
-7871
-7792
-7714
-7636
-7832
-7862
-7783
-7705
-7627
-7550
-7474
-7399
-7372
-7298
-7224
-7266
-7193
-7221
-7259
-7186
-7114
-7097
-7107
-7035
-6964
-6894
-6824
-6755
-6687
-6620
-6553
-6532
-6492
-6502
-6280
-6252
-6189
-6218
-6155
-6126
-6064
-6003
-5942
-5882
-5823
-5764
-5706
-5648
-5591
-5535
-5551
-5592
-5536
-5480
-5503
-5532
-5553
-5497
-5441
-5386
-5332
-5278
-5225
-5172
-5120
-5068
-5017
-4966
-5090
-4978
-5043
-4964
-4914
-4864
-4815
-4766
-4718
-4670
-4623
-4576
-4530
-4484
-4439
-4394
-4350
-4330
-4286
-4379
-4335
-4291
-4248
-4205
-4162
-4120
-4078
-4037
-3996
-3956
-3916
-3876
-3837
-3798
-3759
-3721
-3683
-3646
-3609
-3572
-3674
-3684
-3647
-3610
-3573
-3537
-3501
-3465
-3430
-3395
-3361
-3327
-3456
-3508
-3472
-3437
-3402
-3367
-3333
-3299
-3265
-3232
-3199
-3166
-3134
-3321
-3393
-3359
-3325
-3291
-3258
-3225
-3192
-3160
-3338
-3371
-3337
-3320
-3443
-3408
-3373
-3339
-3305
-3271
-3238
-3205
-3172
-3140
-3108
-3076
-3045
-3014
-2983
-3217
-3248
-3215
-3182
-3150
-3118
-3086
-3055
-3024
-2993
-2963
-2933
-2903
-2873
-2844
-2815
-2944
-3040
-3009
-2978
-2948
-2918
-2888
-2859
-2830
-2801
-2772
-2744
-2716
-2887
-2931
-2901
-2871
-2842
-2813
-2784
-2756
-2728
-2700
-2672
-2645
-2618
-2591
-2565
-2539
-2513
-2487
-2462
-2437
-2412
-2387
-2363
-2339
-2315
-2291
-2268
-2245
-2222
-2199
-2176
-2154
-2132
-2110
-2088
-2067
-2046
-2025
-2004
-1983
-1963
-1943
-2041
-2188
-2166
-2144
-2122
-2100
-2078
-2057
-2036
-2015
-1994
-1974
-1954
-1934
-1914
-1894
-1875
-1856
-1837
-1877
-1858
-2078
-2057
-2061
-2040
-2082
-2061
-2040
-2019
-1998
-1978
-1958
-1938
-1918
-1898
-1975
-1905
-1885
-1866
-1847
-1828
-1809
-1790
-1772
-1754
-1736
-1718
-1700
-1682
-1665
-1648
-1631
-1614
-1597
-1581
-1557
-1541
-1525
-1509
-1493
-1478
-1463
-1448
-1433
-1418
-1403
-1388
-1374
-1360
-1346
-1332
-1318
-1304
-1290
-1277
-1264
-1251
-1238
-1225
-1212
-1199
-1186
-1174
-1162
-1150
-1138
-1126
-1114
-1102
-1090
-1079
-1095
-1077
-1066
-1055
-1044
-1033
-1022
-1011
-1000
-989
-979
-969
-959
-949
-939
-929
-919
-909
-899
-867
-858
-879
-870
-962
-1035
-1024
-1013
-1002
-991
-981
-971
-961
-951
-941
-931
-959
-986
-976
-966
-956
-946
-936
-926
-916
-906
-896
-887
-878
-869
-860
-851
-842
-833
-904
-894
-999
-989
-979
-969
-959
-949
-1019
-1116
-1104
-1092
-1081
-1070
-1059
-1048
-1027
-1130
-1118
-1106
-1094
-1083
-1072
-1061
-1050
-1039
-1028
-1017
-1006
-995
-985
-975
-965
-1018
-1007
-996
-986
-1011
-1000
-989
-979
-969
-959
-949
-939
-929
-919
-909
-899
-872
-863
-854
-845
-836
-827
-818
-809
-869
-860
-851
-842
-833
-824
-815
-806
-797
-789
-688
-761
-753
-745
-737
-729
-721
-713
-705
-697
-690
-683
-676
-669
-662
-655
-648
-641
-673
-706
-698
-684
-776
-768
-760
-861
-852
-843
-834
-825
-816
-807
-798
-790
-782
-774
-877
-868
-917
-907
-897
-888
-879
-1048
-1371
-1357
-1343
-1329
-1315
-1301
-1287
-1274
-1261
-1579
-1563
-1613
-1596
-1580
-1564
-1548
-1532
-1516
-1500
-1484
-1469
-1454
-1439
-1424
-1409
-1394
-1380
-1366
-1510
-1525
-1509
-1493
-1599
-1582
-1654
-1637
-1620
-1603
-1586
-1808
-1855
-1836
-1817
-1798
-1780
-1762
-1744
-1986
-1957
-1937
-1917
-1897
-1878
-1859
-1840
-1821
-1802
-1783
-1765
-1747
-1729
-1711
-1693
-1676
-1717
-1699
-1652
-1635
-1618
-1601
-1584
-1568
-1552
-1536
-1520
-1504
-1488
-1473
-1458
-1443
-1428
-1413
-1398
-1540
-1595
-1478
-1463
-1448
-1433
-1418
-1403
-1388
-1374
-1360
-1346
-1332
-1318
-1304
-1290
-1277
-1264
-1087
-987
-977
-967
-957
-947
-937
-927
-917
-907
-897
-888
-879
-870
-861
-852
-843
-834
-825
-816
-807
-798
-762
-821
-812
-803
-794
-786
-778
-770
-762
-754
-746
-738
-730
-722
-714
-706
-698
-691
-684
-677
-670
-663
-627
-629
-622
-615
-608
-601
-594
-638
-631
-603
-596
-590
-584
-578
-572
-566
-676
-855
-846
-837
-828
-819
-810
-801
-792
-784
-776
-768
-760
-752
-744
-736
-728
-720
-751
-806
-797
-789
-781
-773
-765
-757
-749
-741
-733
-725
-717
-709
-701
-693
-538
-532
-526
-520
-478
-473
-468
-463
-458
-453
-448
-443
-438
-433
-428
-423
-418
-506
-500
-494
-493
-488
-483
-478
-473
-472
-467
-608
-601
-594
-588
-582
-576
-570
-564
-558
-552
-754
-746
-738
-730
-902
-1061
-1050
-1039
-1028
-1186
-1372
-1540
-1629
-1779
-1831
-1936
-1959
-2021
-2134
-2216
-2265
-2242
-2285
-2262
-2343
-2319
-2295
-2420
-2543
-2517
-2705
-2776
-2853
-3010
-3145
-3283
-3250
-3320
-3432
-3397
-3362
-3328
-3294
-3305
-3487
-3535
-3604
-3622
-3654
-3634
-3739
-3832
-3793
-3755
-3717
-3679
-3734
-3962
-3922
-3941
-3931
-4131
-4262
-4321
-4310
-4286
-4470
-4462
-4410
-4363
-4319
-4387
-4458
-4489
-4444
-4399
-4376
-4397
-4420
-4307
-4232
-4327
-4381
-4381
-4348
-4329
-4285
-4307
-4273
-4224
-4261
-4318
-4311
-4442
-4453
-4477
-4407
-4362
-4468
-4473
-4428
-4383
-4309
-4248
-4316
-4272
-4322
-4352
-4425
-4380
-4494
-4465
-4493
-4534
-4533
-4622
-4575
-4646
-4689
-4658
-4679
-4632
-4585
-4539
-4606
-4599
-4659
-4781
-4757
-4839
-4790
-4842
-4918
-4869
-4972
-4922
-5041
-5178
-5126
-5074
-5023
-5122
-5291
-5344
-5352
-5355
-5423
-5563
-5507
-5411
-5438
-5482
-5485
-5600
-5693
-5636
-5717
-5780
-5852
-5924
-5864
-5805
-5819
-5829
-5817
-5758
-5715
-5657
-5618
-5581
-5538
-5482
-5454
-5399
-5344
-5290
-5294
-5353
-5318
-5309
-5420
-5365
-5406
-5351
-5348
-5447
-5580
-5524
-5614
-5649
-5606
-5629
-5661
-5806
-5954
-6028
-6140
-6179
-6251
-6188
-6395
-6657
-6845
-7054
-7261
-7427
-7725
-8015
-8245
-8530
-8755
-8824
-9060
-8969
-9190
-9298
-9366
-9372
-9473
-9578
-9526
-9508
-9569
-9746
-10138
-10394
-10672
-10895
-11047
-11309
-11269
-11230
-11355
-11464
-11627
-11729
-11873
-12041
-12221
-12098
-12142
-12276
-12462
-12565
-12810
-13043
-13318
-13501
-13677
-13731
-14001
-14195
-14330
-14186
-14266
-14401
-14490
-14678
-14865
-14716
-14902
-15125
-15274
-15336
-15444
-15716
-15903
-15947
-16084
-16291
-16198
-16349
-16185
-16327
-16388
-16552
-16816
-16931
-17196
-17406
-17690
-17909
-18198
-18388
-18553
-18797
-18947
-19141
-19361
-19627
-19880
-19681
-19844
-19645
-19881
-20063
-20250
-20490
-20468
-20392
-20468
-20374
-20525
-20624
-20769
-20951
-21121
-21243
-21030
-21359
-21500
-21565
-21749
-21935
-22071
-21850
-22074
-22332
-22108
-22271
-22048
-22199
-22022
-22054
-22125
-22204
-22421
-22449
-22656
-22686
-22782
-22852
-22719
-22949
-23029
-22798
-22733
-22818
-23018
-23144
-23335
-23433
-23344
-23335
-23406
-23438
-23569
-23623
-23386
-23505
-23527
-23723
-23969
-24170
-24435
-24695
-24887
-24927
-24677
-24634
-24745
-24885
-24699
-24694
-24810
-24771
-24765
-24682
-24731
-24523
-24338
-24232
-24287
-24043
-24140
-24258
-24323
-24353
-24109
-23867
-23628
-23727
-23489
-23405
-23378
-23143
-23125
-23126
-23233
-23236
-23251
-23255
-23368
-23502
-23653
-23777
-23538
-23792
-23976
-24131
-24316
-24450
-24533
-24585
-24531
-24520
-24356
-24381
-24407
-24434
-24392
-24436
-24516
-24535
-24535
-24579
-24610
-24717
-24469
-24224
-24273
-24480
-24560
-24629
-24801
-24967
-24814
-24880
-24901
-24801
-24492
-24381
-24248
-24091
-24035
-24021
-24018
-24083
-24164
-24187
-24176
-24001
-23760
-23895
-23655
-23418
-23420
-23372
-23501
-23375
-23141
-23034
-23183
-23173
-23115
-23142
-23103
-23034
-22990
-22902
-22672
-22704
-22730
-22756
-22736
-22568
-22512
-22417
-22192
-22202
-22223
-22221
-22432
-22251
-22310
-22467
-22676
-22861
-22990
-23095
-23264
-23333
-23533
-23297
-23570
-23736
-23974
-24169
-24351
-24468
-24575
-24826
-24800
-24908
-24783
-24768
-24570
-24324
-24368
-24441
-24454
-24209
-24495
-24660
-24413
-24168
-23926
-24095
-24395
-24636
-24834
-24964
-25163
-25374
-25555
-25469
-25474
-25219
-25074
-24967
-24883
-24755
-24819
-24570
-24324
-24246
-24337
-24209
-23966
-23979
-24055
-23814
-23899
-23988
-24177
-24201
-24145
-24010
-24151
-23909
-23669
-23432
-23578
-23672
-23932
-23981
-24076
-23835
-23596
-23844
-23845
-23998
-24008
-23969
-24028
-24178
-24115
-24051
-23984
-24012
-23771
-23650
-23753
-23515
-23411
-23176
-23203
-22945
-22926
-22782
-22816
-22821
-22763
-22863
-22756
-22659
-22540
-22314
-22237
-22155
-22098
-21876
-21822
-21600
-21601
-21648
-21695
-21688
-21470
-21486
-21520
-21304
-21264
-21186
-21120
-21088
-20973
-20799
-20833
-20817
-20851
-20822
-20721
-20722
-20514
-20308
-20269
-20303
-20264
-20061
-19978
-19890
-19630
-19407
-19205
-19062
-18892
-18702
-18583
-18370
-18236
-18103
-17976
-17846
-17717
-17589
-17481
-17306
-17201
-17028
-16921
-16796
-16597
-16447
-16327
-16180
-16018
-15926
-15830
-15731
-15493
-15377
-15220
-15108
-14811
-14542
-14259
-14089
-13947
-13780
-13624
-13530
-13367
-13253
-13006
-12766
-12520
-12208
-11899
-11757
-11492
-11230
-10806
-10426
-10077
-9832
-9589
-9345
-9142
-8836
-8763
-8461
-8230
-8001
-7706
-7456
-7422
-7243
-7170
-6991
-6775
-6643
-6362
-5965
-5710
-5488
-5268
-5151
-4856
-4610
-4366
-4198
-3844
-3540
-3239
-2912
-2681
-2293
-2096
-1832
-1542
-1287
-1009
-687
-443
-438
-200
93
461
726
1014
999
1035
1162
1446
1538
1738
2049
2368
2570
2726
2698
3032
3267
3432
3750
3712
3722
3684
3851
3919
4173
4201
4273
4230
4268
4225
4135
4323
4289
4174
4234
4245
4270
4482
4784
4738
4631
4724
4676
4594
4587
4590
4534
4632
4577
4523
4477
4463
4352
4308
4264
4221
4055
4158
4161
4086
4048
3993
3830
3902
3994
3954
3927
4051
4010
4154
4187
4051
4172
4185
4248
4328
4446
4545
4575
4529
4691
4806
4757
4781
4694
4811
4933
5087
5143
5189
5288
5456
5401
5469
5692
5635
5578
5522
5602
5762
5973
6243
6025
5964
5904
6042
6153
6189
6136
6206
6143
6081
6020
5995
5865
5806
5747
5711
5842
5815
5612
5593
5637
5580
5688
5660
5473
5384
5330
5276
5189
5033
4982
4767
4730
4682
4576
4547
4508
4478
4444
4423
4393
4424
4437
4577
4601
4686
4481
4278
4199
4087
4027
4134
4327
4511
4439
4361
4252
4209
4104
4119
4077
4036
3995
4039
3998
3806
3844
3931
3797
3759
3685
3610
3573
3537
3314
3191
3159
2920
2890
2582
2304
2157
2027
2007
2016
1936
1703
1437
1153
1096
912
633
428
231
32
31
-257
-344
-512
-671
-829
-959
-1063
-1220
-1263
-1286
-1273
-1260
-1247
-1521
-1619
-1609
-1592
-1716
-1769
-1751
-1745
-1762
-1805
-1890
-2013
-2090
-1996
-1976
-1873
-1854
-1860
-1846
-1827
-1808
-1854
-1900
-1880
-1788
-1693
-1660
-1643
-1770
-1817
-1798
-1753
-1735
-1717
-1641
-1597
-1581
-1604
-1587
-1606
-1705
-1687
-1673
-1656
-1708
-1692
-1751
-1697
-1717
-1699
-1729
-1674
-1664
-1774
-1756
-1738
-1812
-1782
-1821
-1802
-1862
-1843
-1922
-1902
-1882
-1863
-1891
-1872
-1975
-2104
-2064
-2012
-2010
-2031
-2025
-2019
-1946
-2011
-2184
-2320
-2296
-2489
-2464
-2515
-2575
-2549
-2523
-2566
-2587
-2607
-2637
-2610
-2598
-2571
-2529
-2617
-2679
-2711
-2640
-2646
-2619
-2628
-2446
-2421
-2510
-2627
-2753
-2900
-2870
-2841
-2812
-3013
-2982
-3208
-3175
-3296
-3263
-3230
-3518
-3619
-3582
-3831
-3849
-3810
-3947
-4098
-4302
-4305
-4312
-4351
-4458
-4413
-4368
-4324
-4626
-4697
-4738
-4852
-4803
-4971
-5166
-5114
-5062
-5011
-5226
-5375
-5321
-5267
-5214
-5161
-5425
-5679
-5622
-5874
-5815
-6012
-6073
-6354
-6290
-6227
-6367
-6391
-6497
-6609
-6620
-6516
-6363
-6409
-6597
-6530
-6561
-6765
-6697
-6629
-6491
-6585
-6647
-6580
-6637
-6570
-6461
-6396
-6515
-6563
-6443
-6632
-6752
-6749
-6707
-6719
-6651
-6584
-6699
-6838
-6964
-7010
-7018
-7111
-7187
-7384
-7415
-7340
-7266
-7211
-7381
-7395
-7320
-7290
-7338
-7264
-7274
-7201
-7128
-7215
-7142
-7070
-6999
-6928
-6858
-7010
-7160
-7088
-7004
-7139
-7344
-7442
-7367
-7387
-7313
-7178
-7218
-7145
-7077
-7006
-6980
-6910
-6941
-7101
-7196
-7123
-7119
-7047
-7048
-6977
-6939
-6941
-7035
-6964
-6894
-7127
-7309
-7235
-7187
-7115
-7043
-6972
-6902
-6832
-6957
-7154
-7265
-7402
-7327
-7451
-7608
-7531
-7455
-7380
-7306
-7232
-7189
-7117
-7045
-6974
-6997
-7029
-6958
-6888
-6819
-6750
-6682
-6615
-6486
-6421
-6382
-6228
-6246
-6284
-6154
-6299
-6197
-6325
-6535
-6598
-6672
-6760
-6692
-6625
-6558
-6525
-6613
-6437
-6445
-6380
-6451
-6493
-6593
-6748
-6772
-6938
-7007
-6936
-6867
-6728
-6829
-6872
-6803
-6850
-6962
-6892
-6823
-6754
-6713
-6706
-6638
-6675
-6608
-6556
-6601
-6534
-6524
-6491
-6502
-6540
-6683
-6616
-6549
-6646
-6729
-6858
-6789
-6818
-6999
-6987
-6993
-6952
-6943
-6921
-6856
-6859
-6790
-6722
-6654
-6587
-6627
-6617
-6550
-6595
-6682
-6534
-6468
-6509
-6443
-6378
-6314
-6274
-6224
-6143
-6081
-5891
-5808
-5749
-5785
-5751
-5796
-5737
-5679
-5622
-5565
-5509
-5453
-5541
-5485
-5615
-5558
-5592
-5484
-5548
-5492
-5392
-5534
-5478
-5489
-5434
-5412
-5357
-5409
-5347
-5293
-5240
-5187
-5096
-4978
-4833
-4784
-4736
-4675
-4681
-4691
-4691
-4564
-4575
-4529
-4487
-4453
-4408
-4306
-4272
-4329
-4285
-4335
-4344
-4300
-4256
-4085
-4012
-3971
-3893
-3736
-3697
-3580
-3535
-3548
-3512
-3520
-3484
-3417
-3479
-3444
-3496
-3756
-3933
-3922
-3750
-3712
-3636
-3589
-3553
-3517
-3481
-3446
-3402
-3280
-3256
-3376
-3438
-3460
-3486
-3407
-3423
-3388
-3395
-3361
-3327
-3293
-3260
-3297
-3430
-3395
-3267
-3321
-3397
-3362
-3328
-3294
-3261
-3228
-3195
-3163
-3189
-3157
-3125
-3093
-3217
-3184
-3152
-3120
-3088
-3057
-3026
-2995
-2965
-2965
-2973
-3010
-2979
-2949
-3026
-2995
-3227
-3339
-3305
-3521
-3485
-3450
-3510
-3618
-3813
-3994
-4157
-4115
-4073
-4032
-3991
-4202
-4329
-4407
-4526
-4480
-4435
-4402
-4590
-4753
-4705
-4657
-4610
-4563
-4739
-4841
-4792
-4744
-4696
-4648
-4601
-4731
-4803
-4754
-4980
-5057
-5006
-4955
-4905
-4855
-4806
-4757
-4709
-4670
-4623
-4609
-4562
-4516
-4470
-4670
-4646
-4599
-4552
-4506
-4460
-4415
-4475
-4547
-4591
-4545
-4499
-4453
-4558
-4532
-4511
-4465
-4420
-4375
-4331
-4287
-4244
-4319
-4509
-4463
-4627
-4580
-4498
-4660
-4613
-4566
-4520
-4557
-4511
-4667
-4620
-4573
-4527
-4688
-4740
-4692
-4645
-4687
-4640
-4593
-4547
-4430
-4385
-4341
-4306
-4262
-4219
-4194
-4155
-4189
-4227
-4184
-4142
-4016
-4178
-4250
-4207
-4164
-4122
-4080
-4039
-3998
-3957
-4156
-4114
-4072
-4031
-4161
-4119
-4077
-4036
-3995
-3955
-4153
-4366
-4322
-4278
-4235
-4192
-4150
-4108
-4066
-4025
-4155
-4307
-4524
-4478
-4433
-4388
-4594
-4799
-4750
-4702
-4654
-4607
-4560
-4514
-4468
-4775
-4930
-4880
-4831
-4782
-4734
-4686
-4639
-4592
-4546
-4500
-4454
-4409
-4364
-4320
-4487
-4614
-4567
-4521
-4475
-4430
-4385
-4341
-4297
-4253
-4210
-4167
-4125
-4083
-4042
-4001
-3960
-4049
-4158
-4275
-4232
-4189
-4147
-4105
-4063
-4022
-3981
-3941
-3901
-3861
-3822
-3783
-3745
-3707
-3669
-3632
-3595
-3559
-3737
-3922
-3882
-3843
-3998
-3957
-3917
-3877
-3838
-3799
-3760
-3722
-3684
-3647
-3610
-3573
-3537
-3821
-3921
-3881
-3842
-3803
-3764
-3726
-3688
-3651
-3614
-3577
-3643
-3606
-3569
-3707
-3669
-3632
-3595
-3781
-3743
-3705
-3667
-3630
-3593
-3557
-3521
-3485
-3450
-3467
-3557
-3655
-3879
-3840
-3801
-3762
-3724
-3782
-3744
-3706
-3668
-3701
-3663
-3626
-3589
-3553
-3517
-3481
-3446
-3411
-3376
-3342
-3308
-3274
-3241
-3208
-3175
-3143
-3111
-3221
-3362
-3328
-3294
-3261
-3228
-3195
-3163
-3131
-3099
-3067
-3036
-3076
-3022
-2991
-2961
-3122
-3090
-3059
-3050
-3019
-2988
-2958
-2928
-2898
-2868
-2839
-2810
-2781
-2774
-2746
-2718
-2723
-2695
-2668
-2641
-2614
-2587
-2561
-2535
-2509
-2483
-2458
-2418
-2393
-2496
-2471
-2446
-2421
-2396
-2372
-2348
-2372
-2499
-2473
-2448
-2423
-2561
-3011
-3285
-3442
-3407
-3406
-3442
-3502
-3479
-3650
-3842
-3803
-4055
-4014
-3973
-4157
-4263
-4388
-4583
-4692
-4843
-4989
-5129
-5232
-5341
-5287
-5351
-5563
-5773
-5715
-5919
-6086
-6025
-6162
-6255
-6285
-6264
-6356
-6433
-6585
-6519
-6553
-6531
-6528
-6584
-6684
-6758
-6836
-6900
-7062
-7096
-7057
-7124
-7269
-7212
-7162
-7034
-7064
-7026
-7109
-7153
-7274
-7201
-7389
-7315
-7366
-7397
-7378
-7304
-7230
-7167
-7198
-7273
-7411
-7516
-7565
-7527
-7633
-7575
-7526
-7537
-7461
-7456
-7381
-7408
-7479
-7510
-7502
-7582
-7491
-7601
-7541
-7453
-7396
-7315
-7326
-7265
-7233
-7177
-7189
-7179
-7212
-7198
-7348
-7429
-7441
-7436
-7516
-7440
-7545
-7624
-7680
-7707
-7738
-7730
-7768
-7841
-7820
-7825
-7784
-7839
-7707
-7645
-7694
-7630
-7622
-7590
-7577
-7501
-7573
-7529
-7608
-7531
-7492
-7340
-7289
-7262
-7258
-7273
-7196
-7030
-6978
-7137
-7215
-7144
-7232
-7252
-7157
-7186
-7183
-7263
-7208
-7089
-7036
-7043
-7090
-7088
-7154
-7200
-7258
-7312
-7303
-7229
-7321
-7431
-7410
-7457
-7489
-7446
-7421
-7372
-7299
-7266
-7262
-7236
-7226
-7173
-7239
-7213
-7122
-7012
-6966
-6993
-6988
-6918
-6866
-6841
-6808
-6897
-6913
-6888
-6922
-6954
-6972
-7051
-7077
-7147
-7242
-7276
-7375
-7451
-7526
-7450
-7481
-7561
-7584
-7633
-7585
-7467
-7350
-7321
-7241
-7168
-7165
-7070
-7087
-7039
-7076
-6965
-6906
-6818
-6760
-6708
-6685
-6691
-6765
-6787
-6746
-6773
-6798
-6729
-6824
-6795
-6748
-6747
-6763
-6786
-6770
-6629
-6391
-6166
-5902
-5713
-5526
-5350
-5296
-5062
-5004
-4941
-4785
-4698
-4548
-4281
-3991
-3927
-3863
-3805
-3898
-3894
-3964
-3924
-4032
-3991
-4071
-4117
-4253
-4158
-4108
-4195
-4250
-4239
-4318
-4335
-4257
-4354
-4186
-4194
-4185
-4273
-4306
-4365
-4390
-4517
-4671
-4855
-4782
-4865
-4928
-5030
-5151
-5129
-5077
-5172
-5339
-5549
-5781
-6005
-6193
-6423
-6479
-6450
-6426
-6354
-6284
-6116
-5945
-5747
-5552
-5387
-5301
-5307
-5217
-5255
-5318
-5373
-5454
-5534
-5635
-5642
-5732
-5753
-5934
-6106
-6283
-6439
-6632
-6855
-6786
-6989
-7071
-7313
-7525
-7707
-7790
-8008
-8214
-8419
-8469
-8562
-8744
-9014
-9142
-9275
-9435
-9636
-9767
-9896
-9953
-10039
-10105
-10241
-10466
-10682
-10856
-11086
-11281
-11412
-11470
-11513
-11612
-11710
-11888
-12065
-11944
-12041
-12207
-12403
-12278
-12481
-12638
-12861
-12984
-13152
-13370
-13558
-13728
-13877
-14101
-14203
-14366
-14585
-14750
-14926
-15054
-15163
-15457
-15685
-15685
-15856
-15994
-16089
-16053
-16006
-15852
-15734
-15640
-15478
-15309
-15198
-15277
-15377
-15380
-15407
-15416
-15367
-15318
-15190
-15086
-14993
-14923
-14958
-14886
-14924
-14965
-15006
-14909
-14987
-15032
-15072
-15112
-15261
-15389
-15487
-15632
-15781
-15925
-15967
-16105
-15944
-15960
-15792
-15840
-15952
-16059
-16068
-16241
-16436
-16605
-16724
-16909
-17024
-17106
-17222
-17283
-17363
-17423
-17341
-17507
-17584
-17523
-17601
-17730
-17680
-17828
-17936
-18109
-18194
-18207
-18300
-18434
-18588
-18643
-18925
-19046
-19257
-19330
-19398
-19485
-19594
-19635
-19715
-19848
-19954
-19908
-19909
-19963
-20108
-20198
-20300
-20291
-20334
-20393
-20428
-20433
-20438
-20471
-20444
-20439
-20449
-20516
-20494
-20421
-20402
-20258
-20114
-19976
-19804
-19611
-19538
-19473
-19414
-19430
-19487
-19422
-19421
-19450
-19364
-19343
-19326
-19470
-19616
-19713
-19707
-19699
-19547
-19412
-19255
-19196
-19123
-19192
-19286
-19382
-19389
-19456
-19515
-19344
-19235
-19196
-19214
-19090
-18985
-18890
-18779
-18647
-18487
-18329
-18243
-18082
-17950
-17770
-17682
-17574
-17528
-17520
-17583
-17660
-17646
-17733
-17765
-17687
-17548
-17521
-17556
-17667
-17630
-17649
-17676
-17857
-18002
-18094
-18115
-18006
-18028
-17846
-17667
-17625
-17564
-17523
-17463
-17376
-17294
-17120
-17040
-17067
-17070
-17030
-16927
-16829
-16890
-17016
-17169
-17038
-16885
-16793
-16747
-16710
-16697
-16659
-16645
-16478
-16349
-16363
-16314
-16241
-16188
-16135
-16041
-15953
-15972
-16065
-16129
-16144
-15982
-15996
-16180
-16348
-16457
-16631
-16464
-16533
-16635
-16486
-16422
-16373
-16246
-16082
-15943
-15783
-15632
-15465
-15310
-15269
-15283
-15237
-15139
-15043
-14892
-14805
-14725
-14685
-14611
-14643
-14698
-14675
-14668
-14595
-14442
-14297
-14193
-14024
-13829
-13636
-13499
-13363
-13204
-13121
-12989
-12805
-12676
-12549
-12335
-12008
-11751
-11582
-11357
-11032
-10746
-10463
-10206
-10115
-9932
-9595
-9428
-9192
-8924
-8659
-8397
-8160
-7898
-7818
-7564
-7313
-7002
-6751
-6683
-6601
-6359
-6295
-6056
-5995
-5759
-5701
-5468
-5413
-5183
-4956
-4731
-4574
-4353
-4134
-4092
-4051
-3864
-3825
-3640
-3603
-3566
-3384
-3175
-3143
-2868
-2596
-2356
-2118
-1853
-1834
-1780
-1614
-1620
-1461
-1321
-1159
-1147
-1135
-846
-553
-94
180
449
672
665
1178
1664
1757
2093
2129
2324
2300
2542
2516
2943
2913
3058
3389
3787
4012
3971
4168
4126
4416
4371
4327
4283
4240
4443
4398
4353
4309
4265
4445
4502
4456
4411
4530
4484
4439
4589
4749
4701
4983
4933
4883
4834
4785
4794
5084
5033
4982
4932
4882
4833
4784
4736
4688
4641
4594
4548
4502
4456
4411
4366
4322
4278
4235
4536
4708
4660
4613
4641
4594
4548
4502
4517
4614
4850
4801
4940
5158
5106
5054
5179
5254
5201
5148
5096
5309
5522
5466
5411
5497
5601
5551
5495
5439
5384
5330
5276
5223
5170
5118
5066
5015
4964
5098
5000
5063
5012
4961
4900
4889
4840
4830
4785
4737
4689
4642
4595
4549
4446
4401
4356
4312
4222
4179
4187
4152
4110
4068
4027
3986
3953
3913
3873
3834
3795
3757
3719
3681
3644
3607
3570
3534
3498
3462
3448
3480
3445
3410
3375
3341
3307
3273
3240
3207
3174
3142
3110
3078
3047
3016
2985
2955
2925
3011
2994
2964
2934
2904
2874
2845
2816
2787
2759
2731
2703
2675
2648
2621
2594
2511
2620
2593
2567
2541
2515
2489
2464
2439
2471
2446
2483
2458
2433
2408
2383
2359
2335
2311
2287
2264
2241
2318
2294
2271
2317
2293
2270
2247
2224
2201
2178
2156
2063
2009
1988
1968
1948
1928
1919
1929
1909
1889
1870
1851
1832
1813
1780
1604
1587
1571
1555
1539
1523
1507
1491
1476
1461
1446
1431
1416
1401
1386
1372
1358
1344
1330
1316
1302
1288
1275
1262
1249
1236
1215
1063
1052
1041
946
796
683
676
669
662
531
525
519
513
507
501
495
490
420
415
410
405
400
395
391
387
383
379
375
371
367
137
-23
-265
-332
-328
-324
-320
-316
-312
-308
-304
-300
-296
-293
-290
-287
-284
-281
-278
-275
-272
-269
-266
-263
-260
-257
-254
-251
-248
-245
-320
-552
-546
-727
-774
-766
-758
-750
-742
-734
-726
-718
-710
-702
-694
-687
-680
-673
-666
-659
-652
-645
-638
-631
-624
-617
-610
-603
-596
-590
-584
-578
-572
-566
-560
-554
-548
-542
-536
-530
-524
-518
-512
-506
-500
-494
-489
-692
-715
-707
-699
-692
-685
-678
-671
-664
-657
-650
-643
-636
-629
-622
-615
-608
-604
-720
-712
-704
-696
-689
-682
-675
-668
-661
-654
-647
-640
-633
-626
-619
-812
-872
-962
-952
-942
-932
-922
-912
-902
-892
-883
-874
-865
-856
-847
-838
-829
-793
-785
-777
-756
-748
-740
-732
-724
-716
-708
-700
-692
-685
-678
-671
-664
-657
-650
-643
-636
-629
-622
-615
-608
-601
-594
-588
-582
-639
-632
-625
-618
-611
-604
-597
-921
-993
-983
-973
-963
-1215
-1202
-1189
-1172
-1160
-1148
-1305
-1291
-1278
-1265
-1252
-1239
-1226
-1213
-1302
-1288
-1445
-1430
-1415
-1400
-1385
-1371
-1357
-1343
-1329
-1315
-1301
-1287
-1274
-1261
-1248
-1235
-1222
-1209
-1196
-1184
-1172
-1160
-1148
-1136
-1124
-1112
-1100
-1088
-1077
-1066
-1055
-1057
-1195
-1139
-1127
-1115
-1103
-1091
-1080
-1069
-1058
-1047
-1036
-1025
-1014
-1003
-992
-982
-1095
-1084
-1361
-1347
-1333
-1319
-1305
-1291
-1278
-1265
-1252
-1239
-1226
-1213
-1200
-1371
-1291
-1278
-1265
-1252
-1239
-1226
-1213
-1200
-1187
-1226
-1213
-1200
-1187
-1377
-1363
-1349
-1335
-1321
-1417
-1653
-1636
-1619
-1602
-1585
-1569
-1553
-1537
-1521
-1505
-1489
-1560
-1616
-1599
-1582
-1566
-1550
-1534
-1518
-1502
-1486
-1471
-1456
-1441
-1426
-1585
-1569
-1553
-1537
-1483
-1542
-1526
-1510
-1494
-1479
-1464
-1449
-1434
-1604
-1587
-1571
-1555
-1539
-1523
-1507
-1491
-1476
-1461
-1604
-1643
-1626
-1609
-1592
-1576
-1816
-1797
-1779
-1846
-1827
-1808
-1789
-1771
-1753
-1735
-1717
-1699
-1681
-1664
-1647
-1630
-1613
-1596
-1580
-1564
-1548
-1532
-1516
-1500
-1484
-1469
-1454
-1439
-1424
-1409
-1540
-1491
-1476
-1461
-1446
-1431
-1416
-1401
-1386
-1372
-1358
-1344
-1330
-1316
-1302
-1423
-1408
-1393
-1379
-1589
-1573
-1557
-1541
-1525
-1509
-1493
-1478
-1463
-1448
-1433
-1418
-1403
-1388
-1374
-1360
-1346
-1332
-1318
-1304
-1334
-1306
-1292
-1279
-1266
-1253
-1240
-1227
-1214
-1201
-1188
-1176
-1164
-1152
-1140
-1128
-1265
-1252
-1273
-1260
-1247
-1234
-1221
-1208
-1195
-1183
-1171
-1159
-1147
-1135
-1123
-1111
-1099
-1087
-1306
-1292
-1409
-1394
-1380
-1366
-1352
-1338
-1324
-1310
-1296
-1283
-1270
-1257
-1244
-1231
-1218
-1338
-1414
-1399
-1384
-1540
-1491
-1476
-1461
-1446
-1431
-1416
-1401
-1386
-1372
-1469
-1454
-1554
-1690
-1673
-1656
-1639
-1622
-1605
-1588
-1572
-1556
-1540
-1524
-1508
-1492
-1477
-1462
-1447
-1432
-1417
-1608
-1723
-1705
-1687
-1670
-1653
-1636
-1619
-1602
-1585
-1569
-1553
-1537
-1521
-1505
-1489
-1581
-1594
-1578
-1562
-1546
-1530
-1514
-1498
-1483
-1468
-1453
-1438
-1423
-1408
-1393
-1379
-1365
-1494
-1497
-1517
-1501
-1485
-1470
-1455
-1440
-1425
-1410
-1395
-1381
-1367
-1353
-1339
-1325
-1311
-1297
-1284
-1507
-1846
-1827
-1808
-1789
-1771
-1753
-1735
-1717
-1699
-1681
-1664
-1647
-1630
-1613
-1596
-1580
-1564
-1727
-1709
-1839
-1820
-1801
-1782
-1764
-1746
-1728
-1710
-1692
-1675
-1658
-1641
-1624
-1607
-1590
-1574
-1558
-1542
-1626
-1871
-1852
-1902
-1882
-1863
-1844
-1825
-1806
-1787
-1769
-1751
-1733
-1715
-1697
-1680
-1663
-1646
-1648
-1696
-1679
-1662
-1645
-1628
-1611
-1594
-1578
-1562
-1546
-1530
-1514
-1498
-1483
-1468
-1453
-1289
-1254
-1241
-1228
-1215
-1202
-1189
-1177
-1165
-1099
-1192
-1180
-1168
-1156
-1144
-1132
-1120
-1108
-1096
-1085
-1402
-1304
-1290
-1277
-1264
-1251
-1238
-1225
-1195
-1183
-1171
-1302
-1288
-1275
-1262
-1249
-1236
-1223
-1210
-1197
-1237
-1252
-1239
-1226
-1213
-1200
-1187
-1175
-1163
-1151
-1139
-1127
-1115
-1103
-1091
-1080
-1200
-1187
-1163
-1151
-1095
-1084
-1110
-1098
-1087
-1076
-1065
-1054
-1043
-1032
-1021
-1010
-999
-989
-979
-969
-1022
-1199
-1186
-1174
-1162
-1150
-1138
-1126
-1114
-1102
-1090
-1079
-1068
-1057
-1046
-1035
-1024
-1013
-1056
-991
-981
-971
-961
-951
-941
-931
-921
-911
-901
-891
-882
-873
-864
-798
-912
-902
-892
-883
-874
-865
-856
-847
-838
-829
-820
-811
-802
-793
-785
-781
-775
-767
-759
-751
-743
-745
-892
-883
-874
-1061
-1050
-1189
-1177
-1165
-1281
-1268
-1252
-1239
-1226
-1213
-1200
-1187
-1175
-1163
-1151
-1139
-1127
-1115
-1103
-1091
-1080
-1069
-1003
-1170
-1158
-1146
-1134
-1122
-1110
-1098
-1087
-1076
-1065
-1054
-1268
-1255
-1455
-1552
-1536
-1625
-1559
-1543
-1536
-1520
-1504
-1488
-1473
-1458
-1443
-1428
-1413
-1398
-1384
-1216
-1171
-1159
-1147
-1135
-1123
-1111
-1099
-1087
-1076
-1065
-1054
-1043
-1032
-1021
-1010
-1017
-926
-916
-906
-896
-887
-878
-869
-860
-851
-842
-833
-824
-815
-772
-851
-842
-833
-824
-815
-806
-797
-789
-824
-844
-835
-826
-817
-808
-799
-791
-783
-875
-866
-1149
-1180
-1338
-1324
-1310
-1388
-1439
-1424
-1409
-1394
-1380
-1366
-1429
-1546
-1530
-1514
-1498
-1732
-1899
-1879
-1860
-1841
-1822
-1803
-1784
-1766
-1817
-1776
-1758
-1740
-1722
-1704
-1686
-1669
-1652
-1635
-1704
-1920
-1900
-1880
-1861
-1952
-1932
-2023
-2002
-1981
-2014
-1993
-1973
-1953
-1933
-1913
-1893
-1874
-1855
-1836
-1817
-1798
-1780
-1762
-1744
-1726
-1708
-1690
-1673
-1656
-1666
-1709
-1691
-1674
-1657
-1640
-1623
-1606
-1589
-1694
-1677
-1660
-1643
-1776
-1758
-1740
-1722
-1933
-1913
-1893
-1863
-1870
-1851
-1874
-1855
-1836
-1817
-1767
-1816
-1863
-2066
-2045
-2030
-2114
-2092
-2071
-2050
-2029
-2008
-1987
-2091
-2141
-2119
-2097
-2076
-2121
-2276
-2352
-2531
-2689
-2771
-2743
-2946
-2835
-2806
-2921
-3138
-3263
-3390
-3440
-3543
-3509
-3666
-3629
-3581
-3545
-3509
-3368
-3337
-3351
-3269
-3236
-3178
-3146
-3114
-3047
-3016
-3028
-3044
-3042
-3091
-3136
-3217
-3220
-3193
-3221
-3207
-3155
-3104
-3037
-2971
-2941
-2911
-2881
-2852
-2807
-2779
-2751
-2723
-2727
-2688
-2823
-3036
-2974
-2944
-2914
-2888
-2913
-2883
-2976
-3048
-3068
-3330
-3538
-3619
-3582
-3562
-3620
-3583
-3722
-3694
-3901
-3918
-3932
-3892
-3911
-3986
-3969
-4077
-4036
-4090
-4282
-4254
-4254
-4211
-4329
-4322
-4444
-4485
-4526
-4614
-4598
-4671
-4902
-5141
-5366
-5614
-5787
-6064
-6265
-6512
-6446
-6620
-6910
-7115
-7351
-7342
-7264
-7199
-7191
-7327
-7368
-7431
-7454
-7364
-7296
-7222
-7433
-7596
-7729
-8053
-8163
-8365
-8567
-8841
-9035
-8973
-9062
-9069
-8978
-8965
-9029
-9179
-9283
-9459
-9633
-9536
-9632
-9752
-9970
-10177
-10469
-10364
-10258
-10461
-10493
-10699
-10853
-10999
-11062
-11094
-11111
-11142
-11173
-11204
-11345
-11553
-11709
-11591
-11617
-11753
-11839
-11720
-11793
-11674
-11800
-11924
-11847
-11818
-11942
-12104
-12264
-12451
-12681
-12713
-12773
-12808
-12922
-13056
-13197
-13307
-13438
-13594
-13793
-13937
-14253
-14445
-14673
-14871
-15113
-15261
-15454
-15497
-15669
-15869
-15710
-16043
-16356
-16602
-16778
-17022
-17208
-17035
-17218
-17328
-17523
-17877
-18090
-18272
-18459
-18765
-18577
-18658
-18741
-18940
-18750
-18562
-18860
-19030
-19272
-19079
-19345
-19585
-19388
-19505
-19769
-19571
-19754
-20017
-20166
-20418
-20213
-20517
-20795
-21068
-21311
-21485
-21718
-21719
-21768
-21895
-21997
-22321
-22392
-22415
-22377
-22467
-22528
-22593
-22658
-22898
-23159
-23327
-23345
-23506
-23569
-23546
-23649
-23728
-23887
-23909
-23956
-24031
-24129
-24202
-23959
-23962
-24057
-23955
-23715
-23682
-23844
-23981
-23740
-23927
-24102
-24166
-24211
-23968
-24039
-24120
-24236
-24321
-24425
-24591
-24777
-24929
-24983
-25069
-25026
-24775
-24819
-24870
-24892
-25116
-25181
-25406
-25540
-25605
-25678
-25717
-25661
-25404
-25642
-25886
-25626
-25369
-25115
-25343
-25566
-25602
-25757
-25811
-25974
-25714
-25906
-26047
-26123
-26290
-26312
-26312
-26510
-26713
-26856
-27061
-27203
-27327
-27477
-27612
-27759
-27884
-27914
-27902
-27834
-27770
-27757
-27735
-27797
-27978
-27818
-28023
-27742
-27464
-27685
-27869
-27973
-27891
-27611
-27533
-27710
-27752
-27698
-27552
-27276
-27347
-27234
-26961
-27138
-27155
-26883
-26613
-26596
-26612
-26613
-26346
-26263
-26155
-25893
-25798
-25771
-25706
-25791
-25942
-26035
-26122
-26252
-26365
-26101
-26240
-26232
-26370
-26528
-26641
-26574
-26308
-26337
-26365
-26480
-26406
-26230
-26217
-26037
-25998
-26035
-26066
-26140
-26298
-26454
-26520
-26676
-26408
-26573
-26790
-26915
-26645
-26378
-26113
-25851
-25926
-25916
-25656
-25399
-25503
-25587
-25330
-25076
-25137
-25239
-25374
-25452
-25197
-25245
-24992
-25018
-24767
-24796
-24547
-24301
-24057
-24275
-24032
-23791
-23552
-23703
-23805
-23566
-23330
-23096
-22864
-22635
-22408
-22183
-21960
-22066
-21938
-21718
-21500
-21284
-21070
-20859
-20650
-20443
-20238
-20329
-20196
-19993
-19792
-19593
-19396
-19201
-18960
-18770
-18618
-18492
-18299
-18115
-18008
-17806
-17659
-17451
-17340
-17302
-17128
-16997
-16848
-16787
-16698
-16588
-16415
-16330
-16169
-16058
-15938
-15805
-15701
-15623
-15455
-15279
-15177
-14957
-14792
-14643
-14475
-14285
-14088
-13997
-13856
-13663
-13577
-13387
-13303
-13154
-13036
-12781
-12487
-12241
-12076
-11827
-11531
-11277
-10960
-10550
-10105
-10003
-9563
-9467
-9236
-8968
-8482
-8058
-7706
-7628
-7150
-7078
-6668
-6350
-6131
-6069
-5938
-5588
-5377
-5168
-4922
-4734
-4454
-4070
-3690
-3404
-3047
-2558
-2532
-2506
-2133
-1877
-1858
-1367
-906
-503
-331
85
294
557
941
1135
1451
1750
1732
2068
2288
2728
2700
2672
3020
3335
3301
3489
3635
3598
3874
4186
4434
4649
4622
4730
4849
4800
4751
4703
4655
4608
4506
4460
4605
4482
4316
4304
4311
4267
4237
4328
4321
4467
4447
4655
4951
5062
5088
5037
4986
4936
5047
4996
5226
5493
5438
5524
5688
5886
6005
5918
5974
5914
5854
5795
5892
5833
5774
5717
5876
5978
5996
6038
6123
6226
6430
6383
6319
6255
6192
6061
5931
5871
5812
5924
5992
5932
5872
5813
5886
6016
6102
6040
6179
6253
6368
6362
6298
6314
6291
6282
6358
6401
6336
6389
6307
6179
6117
6063
5952
5903
5843
5784
5755
5697
5547
5525
5425
5387
5349
5295
5372
5275
5134
4987
4937
4842
4626
4505
4459
4468
4364
4448
4403
4358
4463
4418
4452
4326
4230
4187
4145
4044
4003
3972
3903
3848
3694
3657
3620
3583
3547
3511
3475
3440
3405
3370
3336
3302
3268
3235
3202
3169
3137
2900
2668
2593
2397
2373
2306
2195
2173
2151
2004
1862
1714
1696
1679
1697
1641
1624
1585
1569
1553
1537
1521
1505
1367
1353
1258
1245
1232
1093
856
847
604
597
588
582
426
421
416
411
406
401
396
392
388
384
380
242
239
236
119
95
94
-28
-27
-26
-139
-137
-135
-133
-260
-393
-389
-385
-539
-734
-816
-807
-959
-949
-1123
-1314
-1446
-1431
-1574
-1558
-1550
-1818
-1956
-1936
-2009
-2064
-2043
-2137
-2367
-2343
-2590
-2564
-2752
-2724
-2928
-2898
-2868
-2909
-3134
-3203
-3168
-3115
-3277
-3403
-3368
-3334
-3338
-3304
-3393
-3359
-3619
-3820
-4049
-4223
-4447
-4402
-4357
-4313
-4433
-4496
-4725
-4677
-4630
-4734
-4686
-4639
-4807
-4916
-5028
-4977
-4927
-4877
-5059
-5258
-5510
-5679
-5882
-5823
-6066
-6005
-6204
-6204
-6390
-6489
-6424
-6359
-6295
-6505
-6638
-6650
-6772
-6936
-6866
-6936
-6866
-7096
-7185
-7113
-7041
-6970
-6900
-6830
-6761
-6693
-6626
-6793
-6725
-6542
-6476
-6488
-6423
-6358
-6294
-6230
-6167
-6105
-6043
-5982
-5922
-5862
-6013
-6100
-6038
-5977
-5917
-5857
-5798